0,0.05
0.002,-0.005
0.004,-0.045
0.006,-0.085
0.008,-0.11
0.01,-0.125
0.012,-0.12
0.014,-0.105
0.016,-0.08
0.018,-0.055
0.02,-0.035
0.022,-0.015
0.024,-0.01
0.026,-0.015
0.028,-0.025
0.03,-0.04
0.032,-0.05
0.034,-0.06
0.036,-0.065
0.038,-0.06
0.04,-0.05
0.042,-0.045
0.044,-0.035
0.046,-0.035
0.048,-0.04
0.05,-0.05
0.052,-0.06
0.054,-0.07
0.056,-0.07
0.058,-0.065
0.06,-0.055
0.062,-0.035
0.064,-0.015
0.066,0.005
0.068,0.015
0.07,0.02
0.072,0.02
0.074,0.01
0.076,-0.005
0.078,-0.02
0.08,-0.035
0.082,-0.045
0.084,-0.045
0.086,-0.045
0.088,-0.035
0.09,-0.025
0.092,-0.015
0.094,-0.005
0.096,0.005
0.098,0.005
0.1,0.01
0.102,0.005
0.104,0
0.106,-0.005
0.108,-0.01
0.11,-0.01
0.112,-0.005
0.114,0.005
0.116,0.025
0.118,0.05
0.12,0.07
0.122,0.095
0.124,0.11
0.126,0.12
0.128,0.12
0.13,0.11
0.132,0.095
0.134,0.08
0.136,0.065
0.138,0.055
0.14,0.05
0.142,0.055
0.144,0.065
0.146,0.075
0.148,0.09
0.15,0.1
0.152,0.115
0.154,0.12
0.156,0.13
0.158,0.135
0.16,0.145
0.162,0.155
0.164,0.16
0.166,0.17
0.168,0.175
0.17,0.17
0.172,0.16
0.174,0.145
0.176,0.13
0.178,0.115
0.18,0.1
0.182,0.1
0.184,0.1
0.186,0.115
0.188,0.135
0.19,0.155
0.192,0.17
0.194,0.18
0.196,0.18
0.198,0.165
0.2,0.145
0.202,0.125
0.204,0.1
0.206,0.08
0.208,0.065
0.21,0.06
0.212,0.055
0.214,0.06
0.216,0.06
0.218,0.055
0.22,0.05
0.222,0.04
0.224,0.02
0.226,0.005
0.228,-0.01
0.23,-0.02
0.232,-0.03
0.234,-0.03
0.236,-0.03
0.238,-0.025
0.24,-0.02
0.242,-0.015
0.244,-0.015
0.246,-0.015
0.248,-0.015
0.25,-0.015
0.252,-0.01
0.254,-0.01
0.256,-0.005
0.258,0
0.26,0.005
0.262,0.01
0.264,0.015
0.266,0.015
0.268,0.015
0.27,0.01
0.272,0.01
0.274,0.01
0.276,0.01
0.278,0.005
0.28,0.005
0.282,0
0.284,0
0.286,-0.005
0.288,-0.005
0.29,-0.005
0.292,0
0.294,0.005
0.296,0.015
0.298,0.025
0.3,0.03
0.302,0.035
0.304,0.035
0.306,0.03
0.308,0.02
0.31,0
0.312,-0.015
0.314,-0.035
0.316,-0.05
0.318,-0.065
0.32,-0.075
0.322,-0.085
0.324,-0.085
0.326,-0.08
0.328,-0.07
0.33,-0.06
0.332,-0.04
0.334,-0.015
0.336,0.01
0.338,0.035
0.34,0.055
0.342,0.07
0.344,0.075
0.346,0.075
0.348,0.065
0.35,0.045
0.352,0.025
0.354,0.005
0.356,-0.015
0.358,-0.025
0.36,-0.03
0.362,-0.03
0.364,-0.025
0.366,-0.02
0.368,-0.02
0.37,-0.02
0.372,-0.025
0.374,-0.03
0.376,-0.03
0.378,-0.03
0.38,-0.03
0.382,-0.02
0.384,-0.015
0.386,-0.005
0.388,0
0.39,0
0.392,-0.005
0.394,-0.01
0.396,-0.02
0.398,-0.02
0.4,-0.02
0.402,-0.015
0.404,-0.005
0.406,0.005
0.408,0.01
0.41,0.01
0.412,0.005
0.414,-0.01
0.416,-0.025
0.418,-0.04
0.42,-0.05
0.422,-0.05
0.424,-0.04
0.426,-0.025
0.428,-0.005
0.43,0.015
0.432,0.025
0.434,0.025
0.436,0.015
0.438,0
0.44,-0.02
0.442,-0.04
0.444,-0.055
0.446,-0.06
0.448,-0.055
0.45,-0.045
0.452,-0.03
0.454,-0.015
0.456,-0.005
0.458,-0.005
0.46,-0.01
0.462,-0.02
0.464,-0.035
0.466,-0.05
0.468,-0.06
0.47,-0.065
0.472,-0.06
0.474,-0.055
0.476,-0.045
0.478,-0.035
0.48,-0.02
0.482,-0.01
0.484,-0.005
0.486,0
0.488,-0.005
0.49,-0.01
0.492,-0.015
0.494,-0.025
0.496,-0.035
0.498,-0.045
0.5,-0.05
0.502,-0.055
0.504,-0.05
0.506,-0.045
0.508,-0.035
0.51,-0.03
0.512,-0.025
0.514,-0.03
0.516,-0.035
0.518,-0.045
0.52,-0.06
0.522,-0.07
0.524,-0.08
0.526,-0.085
0.528,-0.08
0.53,-0.07
0.532,-0.06
0.534,-0.045
0.536,-0.03
0.538,-0.02
0.54,-0.015
0.542,-0.015
0.544,-0.015
0.546,-0.02
0.548,-0.025
0.55,-0.025
0.552,-0.025
0.554,-0.025
0.556,-0.03
0.558,-0.035
0.56,-0.04
0.562,-0.055
0.564,-0.065
0.566,-0.08
0.568,-0.09
0.57,-0.09
0.572,-0.085
0.574,-0.075
0.576,-0.065
0.578,-0.045
0.58,-0.035
0.582,-0.025
0.584,-0.03
0.586,-0.035
0.588,-0.05
0.59,-0.065
0.592,-0.075
0.594,-0.085
0.596,-0.08
0.598,-0.07
0.6,-0.05
0.602,-0.03
0.604,-0.01
0.606,0.005
0.608,0.01
0.61,0.01
0.612,0
0.614,-0.015
0.616,-0.035
0.618,-0.045
0.62,-0.055
0.622,-0.055
0.624,-0.05
0.626,-0.04
0.628,-0.025
0.63,-0.015
0.632,-0.01
0.634,-0.005
0.636,0
0.638,0
0.64,0
0.642,0.005
0.644,0.01
0.646,0.02
0.648,0.03
0.65,0.035
0.652,0.045
0.654,0.045
0.656,0.045
0.658,0.04
0.66,0.04
0.662,0.035
0.664,0.03
0.666,0.03
0.668,0.03
0.67,0.025
0.672,0.025
0.674,0.015
0.676,0.01
0.678,0.005
0.68,0
0.682,-0.005
0.684,0
0.686,0
0.688,0
0.69,0
0.692,-0.01
0.694,-0.025
0.696,-0.05
0.698,-0.075
0.7,-0.1
0.702,-0.125
0.704,-0.135
0.706,-0.135
0.708,-0.125
0.71,-0.105
0.712,-0.085
0.714,-0.06
0.716,-0.045
0.718,-0.04
0.72,-0.04
0.722,-0.05
0.724,-0.065
0.726,-0.075
0.728,-0.085
0.73,-0.09
0.732,-0.095
0.734,-0.095
0.736,-0.095
0.738,-0.105
0.74,-0.115
0.742,-0.13
0.744,-0.15
0.746,-0.17
0.748,-0.175
0.75,-0.175
0.752,-0.155
0.754,-0.11
0.756,-0.05
0.758,0.04
0.76,0.15
0.762,0.28
0.764,0.425
0.766,0.575
0.768,0.735
0.77,0.885
0.772,1.02
0.774,1.125
0.776,1.195
0.778,1.215
0.78,1.185
0.782,1.105
0.784,0.975
0.786,0.805
0.788,0.615
0.79,0.415
0.792,0.225
0.794,0.065
0.796,-0.06
0.798,-0.145
0.8,-0.19
0.802,-0.2
0.804,-0.185
0.806,-0.16
0.808,-0.13
0.81,-0.11
0.812,-0.095
0.814,-0.09
0.816,-0.09
0.818,-0.095
0.82,-0.1
0.822,-0.1
0.824,-0.1
0.826,-0.1
0.828,-0.1
0.83,-0.105
0.832,-0.115
0.834,-0.125
0.836,-0.14
0.838,-0.15
0.84,-0.16
0.842,-0.16
0.844,-0.155
0.846,-0.14
0.848,-0.125
0.85,-0.105
0.852,-0.095
0.854,-0.085
0.856,-0.08
0.858,-0.08
0.86,-0.085
0.862,-0.09
0.864,-0.09
0.866,-0.085
0.868,-0.08
0.87,-0.075
0.872,-0.065
0.874,-0.06
0.876,-0.055
0.878,-0.05
0.88,-0.05
0.882,-0.055
0.884,-0.06
0.886,-0.065
0.888,-0.07
0.89,-0.08
0.892,-0.09
0.894,-0.1
0.896,-0.11
0.898,-0.11
0.9,-0.11
0.902,-0.1
0.904,-0.08
0.906,-0.055
0.908,-0.03
0.91,-0.01
0.912,0
0.914,0.005
0.916,-0.005
0.918,-0.025
0.92,-0.05
0.922,-0.075
0.924,-0.09
0.926,-0.095
0.928,-0.09
0.93,-0.075
0.932,-0.055
0.934,-0.035
0.936,-0.02
0.938,-0.01
0.94,-0.01
0.942,-0.02
0.944,-0.035
0.946,-0.045
0.948,-0.055
0.95,-0.06
0.952,-0.06
0.954,-0.05
0.956,-0.04
0.958,-0.025
0.96,-0.01
0.962,-0.005
0.964,0.005
0.966,0.01
0.968,0.015
0.97,0.02
0.972,0.025
0.974,0.03
0.976,0.04
0.978,0.045
0.98,0.05
0.982,0.055
0.984,0.06
0.986,0.06
0.988,0.065
0.99,0.07
0.992,0.075
0.994,0.08
0.996,0.095
0.998,0.105
1,0.115
1.002,0.125
1.004,0.13
1.006,0.13
1.008,0.125
1.01,0.12
1.012,0.11
1.014,0.105
1.016,0.105
1.018,0.105
1.02,0.115
1.022,0.13
1.024,0.145
1.026,0.155
1.028,0.17
1.03,0.17
1.032,0.165
1.034,0.155
1.036,0.135
1.038,0.11
1.04,0.09
1.042,0.075
1.044,0.065
1.046,0.065
1.048,0.07
1.05,0.075
1.052,0.085
1.054,0.085
1.056,0.08
1.058,0.06
1.06,0.04
1.062,0.01
1.064,-0.015
1.066,-0.035
1.068,-0.045
1.07,-0.045
1.072,-0.035
1.074,-0.03
1.076,-0.02
1.078,-0.02
1.08,-0.025
1.082,-0.04
1.084,-0.055
1.086,-0.075
1.088,-0.09
1.09,-0.095
1.092,-0.09
1.094,-0.08
1.096,-0.07
1.098,-0.055
1.1,-0.05
1.102,-0.055
1.104,-0.07
1.106,-0.09
1.108,-0.115
1.11,-0.135
1.112,-0.145
1.114,-0.14
1.116,-0.13
1.118,-0.115
1.12,-0.095
1.122,-0.08
1.124,-0.075
1.126,-0.08
1.128,-0.095
1.13,-0.11
1.132,-0.13
1.134,-0.135
1.136,-0.135
1.138,-0.125
1.14,-0.1
1.142,-0.08
1.144,-0.06
1.146,-0.045
1.148,-0.045
1.15,-0.055
1.152,-0.07
1.154,-0.09
1.156,-0.105
1.158,-0.115
1.16,-0.11
1.162,-0.105
1.164,-0.085
1.166,-0.07
1.168,-0.06
1.17,-0.055
1.172,-0.055
1.174,-0.065
1.176,-0.08
1.178,-0.095
1.18,-0.11
1.182,-0.12
1.184,-0.12
1.186,-0.12
1.188,-0.115
1.19,-0.105
1.192,-0.095
1.194,-0.085
1.196,-0.07
1.198,-0.065
1.2,-0.055
1.202,-0.05
1.204,-0.055
1.206,-0.06
1.208,-0.07
1.21,-0.085
1.212,-0.1
1.214,-0.115
1.216,-0.12
1.218,-0.12
1.22,-0.105
1.222,-0.08
1.224,-0.055
1.226,-0.025
1.228,0
1.23,0.01
1.232,0.015
1.234,0
1.236,-0.02
1.238,-0.04
1.24,-0.065
1.242,-0.075
1.244,-0.08
1.246,-0.07
1.248,-0.055
1.25,-0.035
1.252,-0.015
1.254,0.005
1.256,0.015
1.258,0.02
1.26,0.015
1.262,0.005
1.264,-0.005
1.266,-0.015
1.268,-0.025
1.27,-0.03
1.272,-0.035
1.274,-0.04
1.276,-0.045
1.278,-0.045
1.28,-0.045
1.282,-0.045
1.284,-0.04
1.286,-0.035
1.288,-0.03
1.29,-0.025
1.292,-0.02
1.294,-0.02
1.296,-0.025
1.298,-0.03
1.3,-0.035
1.302,-0.04
1.304,-0.04
1.306,-0.04
1.308,-0.035
1.31,-0.03
1.312,-0.025
1.314,-0.025
1.316,-0.03
1.318,-0.04
1.32,-0.05
1.322,-0.06
1.324,-0.07
1.326,-0.075
1.328,-0.07
1.33,-0.065
1.332,-0.05
1.334,-0.04
1.336,-0.03
1.338,-0.025
1.34,-0.025
1.342,-0.035
1.344,-0.045
1.346,-0.055
1.348,-0.06
1.35,-0.06
1.352,-0.055
1.354,-0.045
1.356,-0.03
1.358,-0.02
1.36,-0.015
1.362,-0.015
1.364,-0.025
1.366,-0.04
1.368,-0.05
1.37,-0.065
1.372,-0.065
1.374,-0.06
1.376,-0.045
1.378,-0.025
1.38,0.005
1.382,0.03
1.384,0.05
1.386,0.065
1.388,0.065
1.39,0.055
1.392,0.04
1.394,0.02
1.396,0.005
1.398,-0.005
1.4,-0.01
1.402,-0.005
1.404,0.01
1.406,0.025
1.408,0.045
1.41,0.06
1.412,0.065
1.414,0.06
1.416,0.05
1.418,0.025
1.42,0
1.422,-0.03
1.424,-0.06
1.426,-0.085
1.428,-0.1
1.43,-0.11
1.432,-0.105
1.434,-0.095
1.436,-0.075
1.438,-0.055
1.44,-0.035
1.442,-0.025
1.444,-0.015
1.446,-0.02
1.448,-0.03
1.45,-0.045
1.452,-0.065
1.454,-0.085
1.456,-0.105
1.458,-0.12
1.46,-0.125
1.462,-0.13
1.464,-0.13
1.466,-0.125
1.468,-0.115
1.47,-0.11
1.472,-0.1
1.474,-0.095
1.476,-0.095
1.478,-0.1
1.48,-0.105
1.482,-0.115
1.484,-0.13
1.486,-0.14
1.488,-0.155
1.49,-0.16
1.492,-0.16
1.494,-0.145
1.496,-0.11
1.498,-0.06
1.5,0.015
1.502,0.11
1.504,0.22
1.506,0.35
1.508,0.485
1.51,0.63
1.512,0.77
1.514,0.895
1.516,1
1.518,1.075
1.52,1.11
1.522,1.1
1.524,1.045
1.526,0.94
1.528,0.805
1.53,0.64
1.532,0.46
1.534,0.285
1.536,0.125
1.538,-0.005
1.54,-0.105
1.542,-0.17
1.544,-0.2
1.546,-0.21
1.548,-0.2
1.55,-0.18
1.552,-0.155
1.554,-0.135
1.556,-0.115
1.558,-0.105
1.56,-0.1
1.562,-0.095
1.564,-0.1
1.566,-0.1
1.568,-0.1
1.57,-0.1
1.572,-0.1
1.574,-0.09
1.576,-0.085
1.578,-0.08
1.58,-0.075
1.582,-0.075
1.584,-0.075
1.586,-0.085
1.588,-0.095
1.59,-0.11
1.592,-0.12
1.594,-0.125
1.596,-0.13
1.598,-0.12
1.6,-0.11
1.602,-0.09
1.604,-0.075
1.606,-0.065
1.608,-0.055
1.61,-0.055
1.612,-0.065
1.614,-0.075
1.616,-0.085
1.618,-0.095
1.62,-0.1
1.622,-0.1
1.624,-0.1
1.626,-0.095
1.628,-0.09
1.63,-0.085
1.632,-0.08
1.634,-0.075
1.636,-0.075
1.638,-0.07
1.64,-0.065
1.642,-0.065
1.644,-0.06
1.646,-0.06
1.648,-0.055
1.65,-0.055
1.652,-0.06
1.654,-0.06
1.656,-0.065
1.658,-0.065
1.66,-0.065
1.662,-0.06
1.664,-0.06
1.666,-0.055
1.668,-0.05
1.67,-0.05
1.672,-0.045
1.674,-0.045
1.676,-0.04
1.678,-0.03
1.68,-0.025
1.682,-0.015
1.684,-0.005
1.686,-0.005
1.688,-0.005
1.69,-0.01
1.692,-0.02
1.694,-0.035
1.696,-0.045
1.698,-0.05
1.7,-0.05
1.702,-0.035
1.704,-0.015
1.706,0.01
1.708,0.04
1.71,0.065
1.712,0.08
1.714,0.085
1.716,0.085
1.718,0.075
1.72,0.06
1.722,0.05
1.724,0.045
1.726,0.05
1.728,0.065
1.73,0.085
1.732,0.11
1.734,0.135
1.736,0.15
1.738,0.155
1.74,0.155
1.742,0.14
1.744,0.125
1.746,0.105
1.748,0.09
1.75,0.08
1.752,0.085
1.754,0.1
1.756,0.12
1.758,0.145
1.76,0.17
1.762,0.19
1.764,0.2
1.766,0.2
1.768,0.195
1.77,0.185
1.772,0.17
1.774,0.155
1.776,0.145
1.778,0.14
1.78,0.14
1.782,0.14
1.784,0.14
1.786,0.14
1.788,0.135
1.79,0.125
1.792,0.105
1.794,0.085
1.796,0.065
1.798,0.04
1.8,0.02
1.802,0.005
1.804,-0.005
1.806,-0.015
1.808,-0.015
1.81,-0.01
1.812,0
1.814,0.01
1.816,0.015
1.818,0.02
1.82,0.02
1.822,0.015
1.824,0.01
1.826,-0.005
1.828,-0.02
1.83,-0.035
1.832,-0.05
1.834,-0.055
1.836,-0.06
1.838,-0.06
1.84,-0.06
1.842,-0.055
1.844,-0.055
1.846,-0.055
1.848,-0.055
1.85,-0.055
1.852,-0.06
1.854,-0.06
1.856,-0.06
1.858,-0.06
1.86,-0.055
1.862,-0.05
1.864,-0.045
1.866,-0.045
1.868,-0.045
1.87,-0.05
1.872,-0.055
1.874,-0.055
1.876,-0.055
1.878,-0.055
1.88,-0.05
1.882,-0.045
1.884,-0.04
1.886,-0.035
1.888,-0.04
1.89,-0.045
1.892,-0.05
1.894,-0.055
1.896,-0.065
1.898,-0.065
1.9,-0.065
1.902,-0.055
1.904,-0.05
1.906,-0.04
1.908,-0.035
1.91,-0.035
1.912,-0.04
1.914,-0.05
1.916,-0.06
1.918,-0.075
1.92,-0.085
1.922,-0.09
1.924,-0.085
1.926,-0.07
1.928,-0.055
1.93,-0.035
1.932,-0.015
1.934,0
1.936,0
1.938,-0.005
1.94,-0.015
1.942,-0.035
1.944,-0.055
1.946,-0.075
1.948,-0.09
1.95,-0.095
1.952,-0.095
1.954,-0.085
1.956,-0.07
1.958,-0.055
1.96,-0.035
1.962,-0.02
1.964,-0.005
1.966,0
1.968,0
1.97,0
1.972,-0.01
1.974,-0.02
1.976,-0.03
1.978,-0.04
1.98,-0.045
1.982,-0.055
1.984,-0.06
1.986,-0.06
1.988,-0.06
1.99,-0.06
1.992,-0.055
1.994,-0.045
1.996,-0.04
1.998,-0.025
2,-0.015
2.002,-0.005
2.004,0
2.006,0
2.008,0
2.01,-0.005
2.012,-0.015
2.014,-0.025
2.016,-0.035
2.018,-0.04
2.02,-0.045
2.022,-0.045
2.024,-0.045
2.026,-0.045
2.028,-0.04
2.03,-0.03
2.032,-0.025
2.034,-0.015
2.036,-0.01
2.038,-0.005
2.04,-0.005
2.042,-0.005
2.044,-0.01
2.046,-0.02
2.048,-0.03
2.05,-0.04
2.052,-0.05
2.054,-0.055
2.056,-0.055
2.058,-0.05
2.06,-0.04
2.062,-0.03
2.064,-0.02
2.066,-0.015
2.068,-0.015
2.07,-0.02
2.072,-0.035
2.074,-0.05
2.076,-0.06
2.078,-0.07
2.08,-0.075
2.082,-0.07
2.084,-0.055
2.086,-0.04
2.088,-0.025
2.09,-0.015
2.092,-0.01
2.094,-0.005
2.096,-0.01
2.098,-0.02
2.1,-0.025
2.102,-0.035
2.104,-0.04
2.106,-0.04
2.108,-0.04
2.11,-0.04
2.112,-0.035
2.114,-0.035
2.116,-0.035
2.118,-0.035
2.12,-0.035
2.122,-0.035
2.124,-0.03
2.126,-0.03
2.128,-0.02
2.13,-0.015
2.132,-0.005
2.134,0.005
2.136,0.01
2.138,0.02
2.14,0.03
2.142,0.04
2.144,0.045
2.146,0.05
2.148,0.055
2.15,0.055
2.152,0.05
2.154,0.045
2.156,0.04
2.158,0.03
2.16,0.02
2.162,0.015
2.164,0.01
2.166,0.015
2.168,0.02
2.17,0.025
2.172,0.03
2.174,0.035
2.176,0.035
2.178,0.035
2.18,0.03
2.182,0.025
2.184,0.015
2.186,0.005
2.188,-0.005
2.19,-0.015
2.192,-0.025
2.194,-0.04
2.196,-0.055
2.198,-0.065
2.2,-0.08
2.202,-0.085
2.204,-0.09
2.206,-0.09
2.208,-0.085
2.21,-0.08
2.212,-0.07
2.214,-0.065
2.216,-0.06
2.218,-0.06
2.22,-0.06
2.222,-0.065
2.224,-0.07
2.226,-0.075
2.228,-0.075
2.23,-0.075
2.232,-0.07
2.234,-0.065
2.236,-0.065
2.238,-0.07
2.24,-0.08
2.242,-0.095
2.244,-0.12
2.246,-0.145
2.248,-0.165
2.25,-0.185
2.252,-0.195
2.254,-0.19
2.256,-0.165
2.258,-0.115
2.26,-0.04
2.262,0.06
2.264,0.185
2.266,0.33
2.268,0.495
2.27,0.665
2.272,0.83
2.274,0.98
2.276,1.11
2.278,1.2
2.28,1.25
2.282,1.255
2.284,1.215
2.286,1.125
2.288,1
2.29,0.85
2.292,0.685
2.294,0.52
2.296,0.365
2.298,0.225
2.3,0.115
2.302,0.035
2.304,-0.015
2.306,-0.04
2.308,-0.045
2.31,-0.035
2.312,-0.025
2.314,-0.02
2.316,-0.02
2.318,-0.035
2.32,-0.055
2.322,-0.09
2.324,-0.12
2.326,-0.145
2.328,-0.16
2.33,-0.16
2.332,-0.15
2.334,-0.13
2.336,-0.105
2.338,-0.08
2.34,-0.065
2.342,-0.055
2.344,-0.05
2.346,-0.06
2.348,-0.065
2.35,-0.075
2.352,-0.08
2.354,-0.08
2.356,-0.075
2.358,-0.07
2.36,-0.07
2.362,-0.07
2.364,-0.075
2.366,-0.085
2.368,-0.1
2.37,-0.11
2.372,-0.12
2.374,-0.12
2.376,-0.115
2.378,-0.105
2.38,-0.095
2.382,-0.085
2.384,-0.08
2.386,-0.075
2.388,-0.075
2.39,-0.08
2.392,-0.08
2.394,-0.075
2.396,-0.07
2.398,-0.06
2.4,-0.055
2.402,-0.05
2.404,-0.05
2.406,-0.055
2.408,-0.06
2.41,-0.07
2.412,-0.08
2.414,-0.08
2.416,-0.075
2.418,-0.065
2.42,-0.055
2.422,-0.04
2.424,-0.025
2.426,-0.02
2.428,-0.02
2.43,-0.03
2.432,-0.04
2.434,-0.05
2.436,-0.06
2.438,-0.065
2.44,-0.065
2.442,-0.06
2.444,-0.05
2.446,-0.045
2.448,-0.04
2.45,-0.04
2.452,-0.045
2.454,-0.045
2.456,-0.045
2.458,-0.04
2.46,-0.035
2.462,-0.025
2.464,-0.015
2.466,0
2.468,0.005
2.47,0.01
2.472,0.005
2.474,0
2.476,-0.005
2.478,-0.015
2.48,-0.015
2.482,-0.015
2.484,-0.005
2.486,0.005
2.488,0.025
2.49,0.045
2.492,0.06
2.494,0.075
2.496,0.08
2.498,0.085
2.5,0.09
2.502,0.085
2.504,0.085
2.506,0.085
2.508,0.085
2.51,0.09
2.512,0.095
2.514,0.1
2.516,0.1
2.518,0.105
2.52,0.105
2.522,0.11
2.524,0.11
2.526,0.11
2.528,0.105
2.53,0.105
2.532,0.1
2.534,0.095
2.536,0.085
2.538,0.08
2.54,0.07
2.542,0.065
2.544,0.06
2.546,0.06
2.548,0.065
2.55,0.07
2.552,0.07
2.554,0.07
2.556,0.065
2.558,0.055
2.56,0.045
2.562,0.025
2.564,0.01
2.566,-0.005
2.568,-0.015
2.57,-0.02
2.572,-0.025
2.574,-0.02
2.576,-0.015
2.578,-0.015
2.58,-0.02
2.582,-0.03
2.584,-0.04
2.586,-0.055
2.588,-0.065
2.59,-0.075
2.592,-0.08
2.594,-0.075
2.596,-0.07
2.598,-0.055
2.6,-0.045
2.602,-0.035
2.604,-0.03
2.606,-0.035
2.608,-0.045
2.61,-0.06
2.612,-0.075
2.614,-0.09
2.616,-0.1
2.618,-0.105
2.62,-0.11
2.622,-0.105
2.624,-0.095
2.626,-0.085
2.628,-0.07
2.63,-0.06
2.632,-0.05
2.634,-0.04
2.636,-0.04
2.638,-0.04
2.64,-0.04
2.642,-0.05
2.644,-0.06
2.646,-0.075
2.648,-0.085
2.65,-0.095
2.652,-0.1
2.654,-0.1
2.656,-0.095
2.658,-0.08
2.66,-0.065
2.662,-0.045
2.664,-0.03
2.666,-0.02
2.668,-0.02
2.67,-0.025
2.672,-0.035
2.674,-0.055
2.676,-0.07
2.678,-0.08
2.68,-0.085
2.682,-0.09
2.684,-0.085
2.686,-0.075
2.688,-0.065
2.69,-0.055
2.692,-0.05
2.694,-0.05
2.696,-0.055
2.698,-0.065
2.7,-0.075
2.702,-0.08
2.704,-0.085
2.706,-0.08
2.708,-0.075
2.71,-0.065
2.712,-0.055
2.714,-0.045
2.716,-0.04
2.718,-0.04
2.72,-0.045
2.722,-0.06
2.724,-0.075
2.726,-0.085
2.728,-0.095
2.73,-0.1
2.732,-0.1
2.734,-0.09
2.736,-0.08
2.738,-0.065
2.74,-0.05
2.742,-0.04
2.744,-0.04
2.746,-0.04
2.748,-0.045
2.75,-0.055
2.752,-0.065
2.754,-0.07
2.756,-0.075
2.758,-0.075
2.76,-0.07
2.762,-0.065
2.764,-0.06
2.766,-0.06
2.768,-0.055
2.77,-0.055
2.772,-0.055
2.774,-0.055
2.776,-0.05
2.778,-0.05
2.78,-0.045
2.782,-0.04
2.784,-0.04
2.786,-0.035
2.788,-0.035
2.79,-0.04
2.792,-0.045
2.794,-0.055
2.796,-0.065
2.798,-0.075
2.8,-0.08
2.802,-0.085
2.804,-0.085
2.806,-0.08
2.808,-0.07
2.81,-0.06
2.812,-0.05
2.814,-0.04
2.816,-0.035
2.818,-0.04
2.82,-0.045
2.822,-0.055
2.824,-0.065
2.826,-0.075
2.828,-0.08
2.83,-0.08
2.832,-0.08
2.834,-0.07
2.836,-0.065
2.838,-0.055
2.84,-0.05
2.842,-0.05
2.844,-0.05
2.846,-0.05
2.848,-0.055
2.85,-0.055
2.852,-0.055
2.854,-0.05
2.856,-0.05
2.858,-0.045
2.86,-0.045
2.862,-0.05
2.864,-0.055
2.866,-0.065
2.868,-0.075
2.87,-0.085
2.872,-0.095
2.874,-0.095
2.876,-0.095
2.878,-0.09
2.88,-0.08
2.882,-0.07
2.884,-0.06
2.886,-0.05
2.888,-0.04
2.89,-0.04
2.892,-0.035
2.894,-0.04
2.896,-0.04
2.898,-0.045
2.9,-0.05
2.902,-0.05
2.904,-0.055
2.906,-0.055
2.908,-0.055
2.91,-0.055
2.912,-0.05
2.914,-0.05
2.916,-0.045
2.918,-0.045
2.92,-0.045
2.922,-0.05
2.924,-0.055
2.926,-0.065
2.928,-0.075
2.93,-0.08
2.932,-0.09
2.934,-0.09
2.936,-0.09
2.938,-0.08
2.94,-0.065
2.942,-0.045
2.944,-0.03
2.946,-0.015
2.948,-0.005
2.95,-0.005
2.952,-0.01
2.954,-0.03
2.956,-0.05
2.958,-0.075
2.96,-0.095
2.962,-0.11
2.964,-0.11
2.966,-0.105
2.968,-0.09
2.97,-0.075
2.972,-0.06
2.974,-0.045
2.976,-0.045
2.978,-0.045
2.98,-0.055
2.982,-0.065
2.984,-0.075
2.986,-0.08
2.988,-0.075
2.99,-0.07
2.992,-0.06
2.994,-0.055
2.996,-0.05
2.998,-0.055
3,-0.06
3.002,-0.07
3.004,-0.08
3.006,-0.085
3.008,-0.08
3.01,-0.075
3.012,-0.06
3.014,-0.05
3.016,-0.045
3.018,-0.045
3.02,-0.055
3.022,-0.075
3.024,-0.095
3.026,-0.11
3.028,-0.115
3.03,-0.11
3.032,-0.09
3.034,-0.065
3.036,-0.03
3.038,0
3.04,0.02
3.042,0.03
3.044,0.02
3.046,0.005
3.048,-0.02
3.05,-0.045
3.052,-0.065
3.054,-0.075
3.056,-0.07
3.058,-0.055
3.06,-0.035
3.062,-0.005
3.064,0.02
3.066,0.04
3.068,0.05
3.07,0.055
3.072,0.055
3.074,0.05
3.076,0.04
3.078,0.03
3.08,0.025
3.082,0.02
3.084,0.02
3.086,0.025
3.088,0.03
3.09,0.035
3.092,0.04
3.094,0.045
3.096,0.045
3.098,0.045
3.1,0.045
3.102,0.035
3.104,0.03
3.106,0.015
3.108,0.005
3.11,-0.005
3.112,-0.015
3.114,-0.025
3.116,-0.03
3.118,-0.035
3.12,-0.035
3.122,-0.04
3.124,-0.045
3.126,-0.055
3.128,-0.065
3.13,-0.075
3.132,-0.085
3.134,-0.09
3.136,-0.095
3.138,-0.09
3.14,-0.085
3.142,-0.075
3.144,-0.06
3.146,-0.05
3.148,-0.04
3.15,-0.035
3.152,-0.04
3.154,-0.045
3.156,-0.06
3.158,-0.075
3.16,-0.095
3.162,-0.11
3.164,-0.125
3.166,-0.14
3.168,-0.155
3.17,-0.17
3.172,-0.175
3.174,-0.18
3.176,-0.175
3.178,-0.16
3.18,-0.125
3.182,-0.065
3.184,0.02
3.186,0.13
3.188,0.265
3.19,0.42
3.192,0.59
3.194,0.76
3.196,0.92
3.198,1.065
3.2,1.18
3.202,1.265
3.204,1.31
3.206,1.32
3.208,1.29
3.21,1.22
3.212,1.12
3.214,0.995
3.216,0.845
3.218,0.68
3.22,0.515
3.222,0.35
3.224,0.205
3.226,0.085
3.228,-0.01
3.23,-0.07
3.232,-0.1
3.234,-0.105
3.236,-0.095
3.238,-0.075
3.24,-0.05
3.242,-0.03
3.244,-0.02
3.246,-0.02
3.248,-0.03
3.25,-0.05
3.252,-0.07
3.254,-0.085
3.256,-0.1
3.258,-0.115
3.26,-0.115
3.262,-0.115
3.264,-0.11
3.266,-0.105
3.268,-0.1
3.27,-0.09
3.272,-0.085
3.274,-0.085
3.276,-0.085
3.278,-0.09
3.28,-0.1
3.282,-0.105
3.284,-0.11
3.286,-0.12
3.288,-0.12
3.29,-0.12
3.292,-0.12
3.294,-0.115
3.296,-0.11
3.298,-0.1
3.3,-0.095
3.302,-0.085
3.304,-0.08
3.306,-0.075
3.308,-0.07
3.31,-0.065
3.312,-0.055
3.314,-0.05
3.316,-0.04
3.318,-0.035
3.32,-0.03
3.322,-0.03
3.324,-0.035
3.326,-0.045
3.328,-0.06
3.33,-0.08
3.332,-0.095
3.334,-0.11
3.336,-0.115
3.338,-0.115
3.34,-0.105
3.342,-0.095
3.344,-0.075
3.346,-0.055
3.348,-0.04
3.35,-0.025
3.352,-0.015
3.354,-0.015
3.356,-0.015
3.358,-0.015
3.36,-0.025
3.362,-0.03
3.364,-0.035
3.366,-0.045
3.368,-0.055
3.37,-0.065
3.372,-0.07
3.374,-0.075
3.376,-0.08
3.378,-0.075
3.38,-0.06
3.382,-0.04
3.384,-0.015
3.386,0.01
3.388,0.03
3.39,0.045
3.392,0.05
3.394,0.045
3.396,0.03
3.398,0.005
3.4,-0.015
3.402,-0.035
3.404,-0.045
3.406,-0.04
3.408,-0.03
3.41,-0.005
3.412,0.02
3.414,0.05
3.416,0.075
3.418,0.095
3.42,0.105
3.422,0.11
3.424,0.11
3.426,0.105
3.428,0.1
3.43,0.095
3.432,0.1
3.434,0.1
3.436,0.11
3.438,0.115
3.44,0.12
3.442,0.125
3.444,0.13
3.446,0.13
3.448,0.125
3.45,0.12
3.452,0.115
3.454,0.11
3.456,0.11
3.458,0.115
3.46,0.12
3.462,0.13
3.464,0.135
3.466,0.14
3.468,0.14
3.47,0.135
3.472,0.12
3.474,0.105
3.476,0.09
3.478,0.07
3.48,0.06
3.482,0.05
3.484,0.045
3.486,0.045
3.488,0.045
3.49,0.05
3.492,0.05
3.494,0.05
3.496,0.045
3.498,0.035
3.5,0.025
3.502,0.015
3.504,0.005
3.506,-0.005
3.508,-0.01
3.51,-0.01
3.512,-0.01
3.514,-0.005
3.516,-0.005
3.518,-0.005
3.52,-0.005
3.522,-0.01
3.524,-0.01
3.526,-0.02
3.528,-0.025
3.53,-0.035
3.532,-0.04
3.534,-0.045
3.536,-0.05
3.538,-0.05
3.54,-0.045
3.542,-0.04
3.544,-0.03
3.546,-0.02
3.548,-0.01
3.55,-0.005
3.552,-0.005
3.554,-0.005
3.556,-0.015
3.558,-0.025
3.56,-0.035
3.562,-0.04
3.564,-0.045
3.566,-0.045
3.568,-0.04
3.57,-0.03
3.572,-0.025
3.574,-0.015
3.576,-0.015
3.578,-0.015
3.58,-0.025
3.582,-0.035
3.584,-0.05
3.586,-0.06
3.588,-0.065
3.59,-0.065
3.592,-0.055
3.594,-0.045
3.596,-0.025
3.598,-0.01
3.6,0.005
3.602,0.015
3.604,0.02
3.606,0.015
3.608,0
3.61,-0.015
3.612,-0.035
3.614,-0.05
3.616,-0.07
3.618,-0.08
3.62,-0.08
3.622,-0.08
3.624,-0.07
3.626,-0.055
3.628,-0.04
3.63,-0.02
3.632,-0.005
3.634,0.005
3.636,0.01
3.638,0.01
3.64,0
3.642,-0.01
3.644,-0.02
3.646,-0.025
3.648,-0.035
3.65,-0.035
3.652,-0.035
3.654,-0.035
3.656,-0.04
3.658,-0.045
3.66,-0.055
3.662,-0.065
3.664,-0.08
3.666,-0.09
3.668,-0.095
3.67,-0.095
3.672,-0.085
3.674,-0.065
3.676,-0.04
3.678,-0.015
3.68,0.005
3.682,0.02
3.684,0.025
3.686,0.02
3.688,0.01
3.69,-0.005
3.692,-0.02
3.694,-0.03
3.696,-0.035
3.698,-0.035
3.7,-0.03
3.702,-0.02
3.704,-0.015
3.706,-0.005
3.708,0
3.71,0
3.712,-0.005
3.714,-0.01
3.716,-0.015
3.718,-0.02
3.72,-0.02
3.722,-0.02
3.724,-0.02
3.726,-0.02
3.728,-0.02
3.73,-0.02
3.732,-0.025
3.734,-0.03
3.736,-0.035
3.738,-0.045
3.74,-0.05
3.742,-0.06
3.744,-0.06
3.746,-0.06
3.748,-0.06
3.75,-0.05
3.752,-0.045
3.754,-0.035
3.756,-0.025
3.758,-0.02
3.76,-0.02
3.762,-0.02
3.764,-0.025
3.766,-0.03
3.768,-0.035
3.77,-0.04
3.772,-0.04
3.774,-0.04
3.776,-0.035
3.778,-0.03
3.78,-0.03
3.782,-0.035
3.784,-0.04
3.786,-0.055
3.788,-0.065
3.79,-0.08
3.792,-0.085
3.794,-0.09
3.796,-0.09
3.798,-0.08
3.8,-0.07
3.802,-0.055
3.804,-0.045
3.806,-0.035
3.808,-0.03
3.81,-0.035
3.812,-0.04
3.814,-0.05
3.816,-0.06
3.818,-0.065
3.82,-0.07
3.822,-0.065
3.824,-0.06
3.826,-0.05
3.828,-0.04
3.83,-0.03
3.832,-0.02
3.834,-0.015
3.836,-0.01
3.838,-0.005
3.84,-0.005
3.842,-0.005
3.844,-0.005
3.846,-0.005
3.848,-0.015
3.85,-0.02
3.852,-0.03
3.854,-0.04
3.856,-0.055
3.858,-0.06
3.86,-0.07
3.862,-0.07
3.864,-0.065
3.866,-0.06
3.868,-0.055
3.87,-0.045
3.872,-0.04
3.874,-0.035
3.876,-0.035
3.878,-0.04
3.88,-0.04
3.882,-0.04
3.884,-0.04
3.886,-0.04
3.888,-0.035
3.89,-0.035
3.892,-0.03
3.894,-0.035
3.896,-0.04
3.898,-0.045
3.9,-0.055
3.902,-0.06
3.904,-0.065
3.906,-0.06
3.908,-0.06
3.91,-0.05
3.912,-0.045
3.914,-0.04
3.916,-0.045
3.918,-0.05
3.92,-0.065
3.922,-0.075
3.924,-0.09
3.926,-0.1
3.928,-0.1
3.93,-0.09
3.932,-0.075
3.934,-0.055
3.936,-0.03
3.938,-0.015
3.94,-0.005
3.942,-0.01
3.944,-0.015
3.946,-0.035
3.948,-0.05
3.95,-0.065
3.952,-0.075
3.954,-0.075
3.956,-0.07
3.958,-0.055
3.96,-0.045
3.962,-0.03
3.964,-0.025
3.966,-0.025
3.968,-0.03
3.97,-0.045
3.972,-0.055
3.974,-0.065
3.976,-0.07
3.978,-0.075
3.98,-0.07
3.982,-0.065
3.984,-0.06
3.986,-0.055
3.988,-0.055
3.99,-0.055
3.992,-0.06
3.994,-0.06
3.996,-0.065
3.998,-0.06
4,-0.055
4.002,-0.05
4.004,-0.04
4.006,-0.03
4.008,-0.02
4.01,-0.02
4.012,-0.02
4.014,-0.025
4.016,-0.03
4.018,-0.04
4.02,-0.045
4.022,-0.05
4.024,-0.055
4.026,-0.055
4.028,-0.055
4.03,-0.055
4.032,-0.05
4.034,-0.045
4.036,-0.04
4.038,-0.035
4.04,-0.025
4.042,-0.02
4.044,-0.01
4.046,-0.005
4.048,0
4.05,0.005
4.052,0
4.054,0
4.056,-0.005
4.058,-0.01
4.06,-0.015
4.062,-0.02
4.064,-0.015
4.066,-0.01
4.068,0
4.07,0.01
4.072,0.025
4.074,0.04
4.076,0.05
4.078,0.055
4.08,0.06
4.082,0.06
4.084,0.06
4.086,0.055
4.088,0.05
4.09,0.05
4.092,0.045
4.094,0.05
4.096,0.05
4.098,0.055
4.1,0.065
4.102,0.07
4.104,0.07
4.106,0.07
4.108,0.06
4.11,0.045
4.112,0.025
4.114,0.005
4.116,-0.025
4.118,-0.05
4.12,-0.075
4.122,-0.09
4.124,-0.105
4.126,-0.11
4.128,-0.11
4.13,-0.1
4.132,-0.085
4.134,-0.07
4.136,-0.05
4.138,-0.035
4.14,-0.025
4.142,-0.025
4.144,-0.03
4.146,-0.04
4.148,-0.06
4.15,-0.08
4.152,-0.095
4.154,-0.11
4.156,-0.115
4.158,-0.115
4.16,-0.105
4.162,-0.09
4.164,-0.075
4.166,-0.065
4.168,-0.065
4.17,-0.075
4.172,-0.095
4.174,-0.12
4.176,-0.145
4.178,-0.17
4.18,-0.175
4.182,-0.16
4.184,-0.12
4.186,-0.045
4.188,0.055
4.19,0.18
4.192,0.33
4.194,0.495
4.196,0.665
4.198,0.84
4.2,1.01
4.202,1.16
4.204,1.28
4.206,1.37
4.208,1.415
4.21,1.41
4.212,1.355
4.214,1.25
4.216,1.1
4.218,0.92
4.22,0.725
4.222,0.53
4.224,0.35
4.226,0.2
4.228,0.08
4.23,0
4.232,-0.045
4.234,-0.065
4.236,-0.07
4.238,-0.065
4.24,-0.055
4.242,-0.05
4.244,-0.045
4.246,-0.045
4.248,-0.045
4.25,-0.05
4.252,-0.055
4.254,-0.055
4.256,-0.065
4.258,-0.07
4.26,-0.08
4.262,-0.09
4.264,-0.1
4.266,-0.1
4.268,-0.1
4.27,-0.095
4.272,-0.085
4.274,-0.075
4.276,-0.065
4.278,-0.06
4.28,-0.06
4.282,-0.07
4.284,-0.085
4.286,-0.095
4.288,-0.11
4.29,-0.12
4.292,-0.12
4.294,-0.115
4.296,-0.11
4.298,-0.095
4.3,-0.085
4.302,-0.08
4.304,-0.08
4.306,-0.08
4.308,-0.08
4.31,-0.08
4.312,-0.08
4.314,-0.075
4.316,-0.065
4.318,-0.055
4.32,-0.045
4.322,-0.04
4.324,-0.045
4.326,-0.06
4.328,-0.075
4.33,-0.095
4.332,-0.11
4.334,-0.12
4.336,-0.125
4.338,-0.115
4.34,-0.095
4.342,-0.075
4.344,-0.055
4.346,-0.045
4.348,-0.04
4.35,-0.045
4.352,-0.055
4.354,-0.07
4.356,-0.09
4.358,-0.1
4.36,-0.11
4.362,-0.11
4.364,-0.1
4.366,-0.085
4.368,-0.07
4.37,-0.055
4.372,-0.045
4.374,-0.035
4.376,-0.03
4.378,-0.03
4.38,-0.035
4.382,-0.04
4.384,-0.05
4.386,-0.055
4.388,-0.055
4.39,-0.055
4.392,-0.05
4.394,-0.04
4.396,-0.03
4.398,-0.02
4.4,-0.01
4.402,0
4.404,0.005
4.406,0.005
4.408,0
4.41,0
4.412,-0.005
4.414,-0.005
4.416,0
4.418,0.01
4.42,0.02
4.422,0.03
4.424,0.04
4.426,0.05
4.428,0.05
4.43,0.05
4.432,0.05
4.434,0.045
4.436,0.045
4.438,0.05
4.44,0.055
4.442,0.065
4.444,0.075
4.446,0.08
4.448,0.085
4.45,0.085
4.452,0.085
4.454,0.085
4.456,0.09
4.458,0.095
4.46,0.105
4.462,0.115
4.464,0.125
4.466,0.13
4.468,0.13
4.47,0.12
4.472,0.105
4.474,0.085
4.476,0.065
4.478,0.05
4.48,0.035
4.482,0.035
4.484,0.035
4.486,0.04
4.488,0.045
4.49,0.045
4.492,0.035
4.494,0.025
4.496,0.005
4.498,-0.01
4.5,-0.03
4.502,-0.035
4.504,-0.04
4.506,-0.03
4.508,-0.02
4.51,-0.01
4.512,0
4.514,0.005
4.516,0.005
4.518,-0.005
4.52,-0.02
4.522,-0.03
4.524,-0.045
4.526,-0.05
4.528,-0.055
4.53,-0.05
4.532,-0.045
4.534,-0.04
4.536,-0.035
4.538,-0.035
4.54,-0.035
4.542,-0.04
4.544,-0.045
4.546,-0.05
4.548,-0.055
4.55,-0.055
4.552,-0.06
4.554,-0.06
4.556,-0.06
4.558,-0.06
4.56,-0.065
4.562,-0.07
4.564,-0.07
4.566,-0.075
4.568,-0.075
4.57,-0.07
4.572,-0.065
4.574,-0.06
4.576,-0.05
4.578,-0.04
4.58,-0.03
4.582,-0.025
4.584,-0.025
4.586,-0.02
4.588,-0.025
4.59,-0.025
4.592,-0.03
4.594,-0.035
4.596,-0.035
4.598,-0.035
4.6,-0.035
4.602,-0.03
4.604,-0.03
4.606,-0.03
4.608,-0.03
4.61,-0.035
4.612,-0.035
4.614,-0.035
4.616,-0.04
4.618,-0.035
4.62,-0.035
4.622,-0.03
4.624,-0.03
4.626,-0.03
4.628,-0.035
4.63,-0.04
4.632,-0.045
4.634,-0.055
4.636,-0.065
4.638,-0.07
4.64,-0.07
4.642,-0.07
4.644,-0.06
4.646,-0.05
4.648,-0.035
4.65,-0.025
4.652,-0.02
4.654,-0.015
4.656,-0.015
4.658,-0.02
4.66,-0.03
4.662,-0.035
4.664,-0.04
4.666,-0.04
4.668,-0.04
4.67,-0.035
4.672,-0.03
4.674,-0.025
4.676,-0.015
4.678,-0.01
4.68,-0.01
4.682,-0.01
4.684,-0.015
4.686,-0.025
4.688,-0.035
4.69,-0.04
4.692,-0.05
4.694,-0.06
4.696,-0.065
4.698,-0.07
4.7,-0.065
4.702,-0.06
4.704,-0.055
4.706,-0.045
4.708,-0.035
4.71,-0.03
4.712,-0.025
4.714,-0.02
4.716,-0.02
4.718,-0.025
4.72,-0.03
4.722,-0.04
4.724,-0.045
4.726,-0.045
4.728,-0.05
4.73,-0.045
4.732,-0.04
4.734,-0.035
4.736,-0.025
4.738,-0.02
4.74,-0.015
4.742,-0.01
4.744,-0.01
4.746,-0.015
4.748,-0.02
4.75,-0.025
4.752,-0.035
4.754,-0.04
4.756,-0.05
4.758,-0.05
4.76,-0.055
4.762,-0.055
4.764,-0.055
4.766,-0.055
4.768,-0.055
4.77,-0.06
4.772,-0.06
4.774,-0.055
4.776,-0.05
4.778,-0.04
4.78,-0.03
4.782,-0.02
4.784,-0.01
4.786,-0.01
4.788,-0.015
4.79,-0.03
4.792,-0.05
4.794,-0.075
4.796,-0.095
4.798,-0.11
4.8,-0.11
4.802,-0.105
4.804,-0.085
4.806,-0.06
4.808,-0.035
4.81,-0.015
4.812,-0.005
4.814,0
4.816,-0.01
4.818,-0.025
4.82,-0.04
4.822,-0.055
4.824,-0.065
4.826,-0.07
4.828,-0.065
4.83,-0.06
4.832,-0.055
4.834,-0.045
4.836,-0.045
4.838,-0.04
4.84,-0.04
4.842,-0.045
4.844,-0.05
4.846,-0.05
4.848,-0.05
4.85,-0.05
4.852,-0.05
4.854,-0.05
4.856,-0.05
4.858,-0.05
4.86,-0.055
4.862,-0.055
4.864,-0.05
4.866,-0.05
4.868,-0.05
4.87,-0.045
4.872,-0.04
4.874,-0.04
4.876,-0.035
4.878,-0.03
4.88,-0.03
4.882,-0.025
4.884,-0.025
4.886,-0.025
4.888,-0.025
4.89,-0.035
4.892,-0.045
4.894,-0.065
4.896,-0.08
4.898,-0.1
4.9,-0.11
4.902,-0.115
4.904,-0.115
4.906,-0.1
4.908,-0.08
4.91,-0.06
4.912,-0.035
4.914,-0.02
4.916,-0.005
4.918,-0.005
4.92,-0.01
4.922,-0.02
4.924,-0.03
4.926,-0.04
4.928,-0.05
4.93,-0.05
4.932,-0.045
4.934,-0.045
4.936,-0.04
4.938,-0.04
4.94,-0.045
4.942,-0.05
4.944,-0.06
4.946,-0.07
4.948,-0.08
4.95,-0.08
4.952,-0.08
4.954,-0.07
4.956,-0.06
4.958,-0.05
4.96,-0.045
4.962,-0.035
4.964,-0.035
4.966,-0.035
4.968,-0.035
4.97,-0.035
4.972,-0.035
4.974,-0.03
4.976,-0.03
4.978,-0.03
4.98,-0.03
4.982,-0.03
4.984,-0.03
4.986,-0.03
4.988,-0.025
4.99,-0.015
4.992,0
4.994,0.02
4.996,0.045
4.998,0.065
5,0.08
5.002,0.09
5.004,0.085
5.006,0.075
5.008,0.055
5.01,0.025
5.012,0.005
5.014,-0.015
5.016,-0.025
5.018,-0.02
5.02,-0.01
5.022,0.005
5.024,0.02
5.026,0.035
5.028,0.04
5.03,0.035
5.032,0.02
5.034,0
5.036,-0.025
5.038,-0.05
5.04,-0.07
5.042,-0.085
5.044,-0.095
5.046,-0.095
5.048,-0.095
5.05,-0.09
5.052,-0.085
5.054,-0.08
5.056,-0.08
5.058,-0.08
5.06,-0.085
5.062,-0.085
5.064,-0.085
5.066,-0.085
5.068,-0.085
5.07,-0.08
5.072,-0.07
5.074,-0.065
5.076,-0.065
5.078,-0.065
5.08,-0.075
5.082,-0.085
5.084,-0.1
5.086,-0.12
5.088,-0.135
5.09,-0.155
5.092,-0.17
5.094,-0.185
5.096,-0.19
5.098,-0.2
5.1,-0.2
5.102,-0.195
5.104,-0.18
5.106,-0.155
5.108,-0.11
5.11,-0.045
5.112,0.05
5.114,0.17
5.116,0.32
5.118,0.49
5.12,0.675
5.122,0.86
5.124,1.035
5.126,1.185
5.128,1.295
5.13,1.35
5.132,1.35
5.134,1.295
5.136,1.185
5.138,1.03
5.14,0.845
5.142,0.65
5.144,0.455
5.146,0.28
5.148,0.13
5.15,0.01
5.152,-0.07
5.154,-0.12
5.156,-0.145
5.158,-0.145
5.16,-0.135
5.162,-0.12
5.164,-0.105
5.166,-0.095
5.168,-0.09
5.17,-0.09
5.172,-0.09
5.174,-0.095
5.176,-0.105
5.178,-0.11
5.18,-0.115
5.182,-0.125
5.184,-0.13
5.186,-0.13
5.188,-0.13
5.19,-0.125
5.192,-0.115
5.194,-0.11
5.196,-0.1
5.198,-0.09
5.2,-0.09
5.202,-0.09
5.204,-0.095
5.206,-0.105
5.208,-0.12
5.21,-0.13
5.212,-0.135
5.214,-0.135
5.216,-0.13
5.218,-0.115
5.22,-0.095
5.222,-0.075
5.224,-0.055
5.226,-0.04
5.228,-0.035
5.23,-0.04
5.232,-0.05
5.234,-0.065
5.236,-0.08
5.238,-0.095
5.24,-0.105
5.242,-0.11
5.244,-0.105
5.246,-0.1
5.248,-0.09
5.25,-0.08
5.252,-0.075
5.254,-0.07
5.256,-0.07
5.258,-0.075
5.26,-0.08
5.262,-0.085
5.264,-0.09
5.266,-0.09
5.268,-0.095
5.27,-0.09
5.272,-0.09
5.274,-0.085
5.276,-0.08
5.278,-0.08
5.28,-0.075
5.282,-0.07
5.284,-0.065
5.286,-0.06
5.288,-0.055
5.29,-0.05
5.292,-0.04
5.294,-0.035
5.296,-0.025
5.298,-0.025
5.3,-0.02
5.302,-0.02
5.304,-0.02
5.306,-0.02
5.308,-0.02
5.31,-0.02
5.312,-0.02
5.314,-0.02
5.316,-0.02
5.318,-0.02
5.32,-0.025
5.322,-0.025
5.324,-0.03
5.326,-0.03
5.328,-0.03
5.33,-0.02
5.332,-0.005
5.334,0.01
5.336,0.03
5.338,0.05
5.34,0.065
5.342,0.07
5.344,0.07
5.346,0.065
5.348,0.06
5.35,0.05
5.352,0.05
5.354,0.05
5.356,0.055
5.358,0.07
5.36,0.08
5.362,0.095
5.364,0.105
5.366,0.11
5.368,0.115
5.37,0.11
5.372,0.11
5.374,0.11
5.376,0.115
5.378,0.12
5.38,0.125
5.382,0.135
5.384,0.14
5.386,0.14
5.388,0.14
5.39,0.14
5.392,0.135
5.394,0.125
5.396,0.125
5.398,0.12
5.4,0.115
5.402,0.11
5.404,0.105
5.406,0.09
5.408,0.075
5.41,0.055
5.412,0.035
5.414,0.015
5.416,-0.005
5.418,-0.015
5.42,-0.015
5.422,-0.015
5.424,-0.01
5.426,-0.005
5.428,-0.005
5.43,-0.005
5.432,-0.015
5.434,-0.025
5.436,-0.04
5.438,-0.05
5.44,-0.055
5.442,-0.055
5.444,-0.05
5.446,-0.04
5.448,-0.025
5.45,-0.015
5.452,-0.01
5.454,-0.01
5.456,-0.015
5.458,-0.03
5.46,-0.045
5.462,-0.055
5.464,-0.065
5.466,-0.07
5.468,-0.065
5.47,-0.055
5.472,-0.045
5.474,-0.03
5.476,-0.02
5.478,-0.015
5.48,-0.02
5.482,-0.03
5.484,-0.04
5.486,-0.055
5.488,-0.065
5.49,-0.07
5.492,-0.065
5.494,-0.06
5.496,-0.05
5.498,-0.035
5.5,-0.03
5.502,-0.025
5.504,-0.025
5.506,-0.035
5.508,-0.045
5.51,-0.05
5.512,-0.06
5.514,-0.06
5.516,-0.06
5.518,-0.05
5.52,-0.045
5.522,-0.035
5.524,-0.03
5.526,-0.025
5.528,-0.025
5.53,-0.03
5.532,-0.035
5.534,-0.035
5.536,-0.035
5.538,-0.035
5.54,-0.035
5.542,-0.03
5.544,-0.025
5.546,-0.025
5.548,-0.025
5.55,-0.025
5.552,-0.025
5.554,-0.03
5.556,-0.03
5.558,-0.025
5.56,-0.025
5.562,-0.02
5.564,-0.015
5.566,-0.01
5.568,-0.01
5.57,-0.01
5.572,-0.015
5.574,-0.02
5.576,-0.02
5.578,-0.025
5.58,-0.025
5.582,-0.025
5.584,-0.025
5.586,-0.02
5.588,-0.015
5.59,-0.015
5.592,-0.01
5.594,-0.01
5.596,-0.005
5.598,-0.005
5.6,0
5.602,0
5.604,0.005
5.606,0.005
5.608,0.005
5.61,0.005
5.612,0.005
5.614,0
5.616,-0.005
5.618,-0.005
5.62,0
5.622,0.005
5.624,0.01
5.626,0.02
5.628,0.02
5.63,0.02
5.632,0.01
5.634,-0.005
5.636,-0.02
5.638,-0.035
5.64,-0.05
5.642,-0.05
5.644,-0.045
5.646,-0.035
5.648,-0.015
5.65,0.005
5.652,0.02
5.654,0.03
5.656,0.03
5.658,0.025
5.66,0.01
5.662,-0.005
5.664,-0.02
5.666,-0.03
5.668,-0.03
5.67,-0.025
5.672,-0.015
5.674,-0.005
5.676,0.01
5.678,0.02
5.68,0.02
5.682,0.02
5.684,0.01
5.686,0
5.688,-0.015
5.69,-0.025
5.692,-0.03
5.694,-0.035
5.696,-0.035
5.698,-0.03
5.7,-0.025
5.702,-0.025
5.704,-0.025
5.706,-0.025
5.708,-0.03
5.71,-0.035
5.712,-0.045
5.714,-0.05
5.716,-0.055
5.718,-0.06
5.72,-0.06
5.722,-0.055
5.724,-0.045
5.726,-0.035
5.728,-0.02
5.73,-0.01
5.732,-0.005
5.734,0
5.736,0.005
5.738,0.005
5.74,0
5.742,0
5.744,-0.005
5.746,-0.005
5.748,-0.01
5.75,-0.015
5.752,-0.02
5.754,-0.025
5.756,-0.035
5.758,-0.045
5.76,-0.05
5.762,-0.05
5.764,-0.045
5.766,-0.04
5.768,-0.025
5.77,-0.015
5.772,0
5.774,0.005
5.776,0.005
5.778,0
5.78,-0.005
5.782,-0.015
5.784,-0.02
5.786,-0.025
5.788,-0.02
5.79,-0.01
5.792,0
5.794,0.005
5.796,0.01
5.798,0.005
5.8,0
5.802,-0.015
5.804,-0.03
5.806,-0.045
5.808,-0.055
5.81,-0.055
5.812,-0.05
5.814,-0.04
5.816,-0.025
5.818,-0.015
5.82,-0.015
5.822,-0.02
5.824,-0.03
5.826,-0.04
5.828,-0.055
5.83,-0.065
5.832,-0.065
5.834,-0.06
5.836,-0.055
5.838,-0.04
5.84,-0.03
5.842,-0.02
5.844,-0.02
5.846,-0.02
5.848,-0.025
5.85,-0.025
5.852,-0.03
5.854,-0.03
5.856,-0.025
5.858,-0.015
5.86,-0.005
5.862,0
5.864,0.005
5.866,0
5.868,-0.01
5.87,-0.025
5.872,-0.045
5.874,-0.06
5.876,-0.075
5.878,-0.085
5.88,-0.085
5.882,-0.085
5.884,-0.085
5.886,-0.075
5.888,-0.07
5.89,-0.06
5.892,-0.05
5.894,-0.035
5.896,-0.02
5.898,-0.005
5.9,0.01
5.902,0.025
5.904,0.03
5.906,0.035
5.908,0.03
5.91,0.02
5.912,0.01
5.914,-0.005
5.916,-0.02
5.918,-0.035
5.92,-0.04
5.922,-0.04
5.924,-0.04
5.926,-0.035
5.928,-0.025
5.93,-0.015
5.932,-0.005
5.934,0.005
5.936,0.02
5.938,0.035
5.94,0.055
5.942,0.07
5.944,0.08
5.946,0.09
5.948,0.09
5.95,0.08
5.952,0.065
5.954,0.05
5.956,0.03
5.958,0.01
5.96,0
5.962,-0.01
5.964,-0.015
5.966,-0.01
5.968,-0.005
5.97,0
5.972,0
5.974,0
5.976,-0.005
5.978,-0.015
5.98,-0.025
5.982,-0.04
5.984,-0.05
5.986,-0.055
5.988,-0.06
5.99,-0.06
5.992,-0.06
5.994,-0.055
5.996,-0.045
5.998,-0.04
6,-0.035
6.002,-0.035
6.004,-0.04
6.006,-0.05
6.008,-0.065
6.01,-0.085
6.012,-0.105
6.014,-0.12
6.016,-0.125
6.018,-0.125
6.02,-0.12
6.022,-0.1
6.024,-0.08
6.026,-0.065
6.028,-0.05
6.03,-0.045
6.032,-0.055
6.034,-0.075
6.036,-0.105
6.038,-0.14
6.04,-0.17
6.042,-0.19
6.044,-0.195
6.046,-0.175
6.048,-0.13
6.05,-0.055
6.052,0.045
6.054,0.175
6.056,0.33
6.058,0.5
6.06,0.685
6.062,0.875
6.064,1.05
6.066,1.205
6.068,1.325
6.07,1.4
6.072,1.415
6.074,1.375
6.076,1.275
6.078,1.135
6.08,0.965
6.082,0.775
6.084,0.595
6.086,0.43
6.088,0.295
6.09,0.195
6.092,0.125
6.094,0.085
6.096,0.06
6.098,0.05
6.1,0.045
6.102,0.04
6.104,0.035
6.106,0.025
6.108,0.02
6.11,0.015
6.112,0.015
6.114,0.015
6.116,0.015
6.118,0.01
6.12,0
6.122,-0.01
6.124,-0.025
6.126,-0.04
6.128,-0.06
6.13,-0.075
6.132,-0.085
6.134,-0.09
6.136,-0.085
6.138,-0.08
6.14,-0.07
6.142,-0.055
6.144,-0.045
6.146,-0.04
6.148,-0.04
6.15,-0.045
6.152,-0.05
6.154,-0.065
6.156,-0.075
6.158,-0.09
6.16,-0.1
6.162,-0.105
6.164,-0.105
6.166,-0.1
6.168,-0.095
6.17,-0.08
6.172,-0.07
6.174,-0.06
6.176,-0.05
6.178,-0.045
6.18,-0.045
6.182,-0.05
6.184,-0.055
6.186,-0.065
6.188,-0.07
6.19,-0.075
6.192,-0.075
6.194,-0.08
6.196,-0.08
6.198,-0.08
6.2,-0.08
6.202,-0.075
6.204,-0.075
6.206,-0.075
6.208,-0.075
6.21,-0.07
6.212,-0.07
6.214,-0.065
6.216,-0.06
6.218,-0.06
6.22,-0.055
6.222,-0.055
6.224,-0.055
6.226,-0.055
6.228,-0.05
6.23,-0.045
6.232,-0.04
6.234,-0.03
6.236,-0.02
6.238,-0.015
6.24,-0.01
6.242,-0.01
6.244,-0.015
6.246,-0.025
6.248,-0.035
6.25,-0.045
6.252,-0.055
6.254,-0.055
6.256,-0.05
6.258,-0.045
6.26,-0.035
6.262,-0.025
6.264,-0.015
6.266,-0.01
6.268,-0.01
6.27,-0.015
6.272,-0.02
6.274,-0.025
6.276,-0.025
6.278,-0.02
6.28,-0.01
6.282,0
6.284,0.015
6.286,0.03
6.288,0.045
6.29,0.05
6.292,0.055
6.294,0.055
6.296,0.05
6.298,0.05
6.3,0.05
6.302,0.055
6.304,0.06
6.306,0.065
6.308,0.075
6.31,0.075
6.312,0.075
6.314,0.07
6.316,0.06
6.318,0.055
6.32,0.05
6.322,0.055
6.324,0.065
6.326,0.08
6.328,0.095
6.33,0.11
6.332,0.115
6.334,0.12
6.336,0.115
6.338,0.1
6.34,0.085
6.342,0.07
6.344,0.055
6.346,0.045
6.348,0.04
6.35,0.035
6.352,0.03
6.354,0.02
6.356,0.015
6.358,0.005
6.36,-0.01
6.362,-0.02
6.364,-0.025
6.366,-0.03
6.368,-0.035
6.37,-0.035
6.372,-0.035
6.374,-0.04
6.376,-0.05
6.378,-0.06
6.38,-0.075
6.382,-0.08
6.384,-0.085
6.386,-0.085
6.388,-0.07
6.39,-0.055
6.392,-0.04
6.394,-0.03
6.396,-0.025
6.398,-0.03
6.4,-0.045
6.402,-0.065
6.404,-0.085
6.406,-0.1
6.408,-0.11
6.41,-0.11
6.412,-0.1
6.414,-0.085
6.416,-0.07
6.418,-0.055
6.42,-0.05
6.422,-0.055
6.424,-0.065
6.426,-0.08
6.428,-0.09
6.43,-0.095
6.432,-0.1
6.434,-0.09
6.436,-0.08
6.438,-0.07
6.44,-0.065
6.442,-0.06
6.444,-0.06
6.446,-0.065
6.448,-0.07
6.45,-0.075
6.452,-0.075
6.454,-0.075
6.456,-0.07
6.458,-0.06
6.46,-0.055
6.462,-0.055
6.464,-0.06
6.466,-0.07
6.468,-0.085
6.47,-0.095
6.472,-0.1
6.474,-0.1
6.476,-0.095
6.478,-0.085
6.48,-0.07
6.482,-0.055
6.484,-0.045
6.486,-0.04
6.488,-0.045
6.49,-0.06
6.492,-0.075
6.494,-0.09
6.496,-0.1
6.498,-0.105
6.5,-0.105
6.502,-0.1
6.504,-0.09
6.506,-0.075
6.508,-0.065
6.51,-0.06
6.512,-0.055
6.514,-0.06
6.516,-0.06
6.518,-0.06
6.52,-0.065
6.522,-0.065
6.524,-0.065
6.526,-0.06
6.528,-0.06
6.53,-0.06
6.532,-0.06
6.534,-0.065
6.536,-0.065
6.538,-0.065
6.54,-0.06
6.542,-0.055
6.544,-0.05
6.546,-0.045
6.548,-0.04
6.55,-0.045
6.552,-0.045
6.554,-0.055
6.556,-0.065
6.558,-0.075
6.56,-0.08
6.562,-0.085
6.564,-0.085
6.566,-0.075
6.568,-0.07
6.57,-0.065
6.572,-0.06
6.574,-0.055
6.576,-0.06
6.578,-0.065
6.58,-0.07
6.582,-0.07
6.584,-0.07
6.586,-0.065
6.588,-0.055
6.59,-0.04
6.592,-0.025
6.594,-0.015
6.596,-0.01
6.598,-0.01
6.6,-0.02
6.602,-0.03
6.604,-0.045
6.606,-0.06
6.608,-0.07
6.61,-0.08
6.612,-0.08
6.614,-0.08
6.616,-0.07
6.618,-0.06
6.62,-0.05
6.622,-0.04
6.624,-0.035
6.626,-0.03
6.628,-0.03
6.63,-0.035
6.632,-0.045
6.634,-0.05
6.636,-0.06
6.638,-0.065
6.64,-0.07
6.642,-0.075
6.644,-0.08
6.646,-0.085
6.648,-0.09
6.65,-0.09
6.652,-0.09
6.654,-0.09
6.656,-0.09
6.658,-0.08
6.66,-0.075
6.662,-0.06
6.664,-0.05
6.666,-0.04
6.668,-0.035
6.67,-0.035
6.672,-0.035
6.674,-0.045
6.676,-0.05
6.678,-0.06
6.68,-0.07
6.682,-0.075
6.684,-0.075
6.686,-0.075
6.688,-0.07
6.69,-0.065
6.692,-0.06
6.694,-0.055
6.696,-0.055
6.698,-0.055
6.7,-0.055
6.702,-0.055
6.704,-0.055
6.706,-0.055
6.708,-0.055
6.71,-0.06
6.712,-0.065
6.714,-0.07
6.716,-0.075
6.718,-0.08
6.72,-0.08
6.722,-0.08
6.724,-0.075
6.726,-0.07
6.728,-0.06
6.73,-0.05
6.732,-0.04
6.734,-0.035
6.736,-0.03
6.738,-0.03
6.74,-0.035
6.742,-0.035
6.744,-0.04
6.746,-0.045
6.748,-0.05
6.75,-0.055
6.752,-0.065
6.754,-0.07
6.756,-0.075
6.758,-0.08
6.76,-0.08
6.762,-0.075
6.764,-0.06
6.766,-0.045
6.768,-0.03
6.77,-0.015
6.772,-0.005
6.774,0
6.776,-0.005
6.778,-0.02
6.78,-0.04
6.782,-0.055
6.784,-0.07
6.786,-0.08
6.788,-0.085
6.79,-0.08
6.792,-0.065
6.794,-0.055
6.796,-0.045
6.798,-0.04
6.8,-0.035
6.802,-0.035
6.804,-0.04
6.806,-0.045
6.808,-0.045
6.81,-0.045
6.812,-0.04
6.814,-0.03
6.816,-0.025
6.818,-0.02
6.82,-0.02
6.822,-0.025
6.824,-0.03
6.826,-0.035
6.828,-0.035
6.83,-0.035
6.832,-0.025
6.834,-0.015
6.836,-0.005
6.838,0
6.84,0.005
6.842,0
6.844,-0.01
6.846,-0.02
6.848,-0.035
6.85,-0.05
6.852,-0.055
6.854,-0.045
6.856,-0.03
6.858,-0.005
6.86,0.03
6.862,0.065
6.864,0.095
6.866,0.115
6.868,0.125
6.87,0.125
6.872,0.11
6.874,0.09
6.876,0.065
6.878,0.04
6.88,0.02
6.882,0.01
6.884,0.005
6.886,0.015
6.888,0.025
6.89,0.04
6.892,0.05
6.894,0.05
6.896,0.045
6.898,0.025
6.9,0
6.902,-0.03
6.904,-0.06
6.906,-0.085
6.908,-0.105
6.91,-0.11
6.912,-0.11
6.914,-0.095
6.916,-0.085
6.918,-0.07
6.92,-0.06
6.922,-0.06
6.924,-0.065
6.926,-0.08
6.928,-0.095
6.93,-0.11
6.932,-0.12
6.934,-0.125
6.936,-0.12
6.938,-0.11
6.94,-0.09
6.942,-0.07
6.944,-0.055
6.946,-0.045
6.948,-0.045
6.95,-0.05
6.952,-0.06
6.954,-0.08
6.956,-0.105
6.958,-0.13
6.96,-0.16
6.962,-0.185
6.964,-0.2
6.966,-0.21
6.968,-0.205
6.97,-0.18
6.972,-0.13
6.974,-0.055
6.976,0.055
6.978,0.19
6.98,0.345
6.982,0.525
6.984,0.705
6.986,0.89
6.988,1.055
6.99,1.195
6.992,1.3
6.994,1.365
6.996,1.38
6.998,1.35
7,1.27
7.002,1.15
7.004,0.99
7.006,0.815
7.008,0.625
7.01,0.44
7.012,0.27
7.014,0.125
7.016,0.01
7.018,-0.065
7.02,-0.105
7.022,-0.125
7.024,-0.12
7.026,-0.105
7.028,-0.09
7.03,-0.075
7.032,-0.07
7.034,-0.07
7.036,-0.075
7.038,-0.085
7.04,-0.095
7.042,-0.1
7.044,-0.105
7.046,-0.105
7.048,-0.105
7.05,-0.105
7.052,-0.105
7.054,-0.11
7.056,-0.11
7.058,-0.115
7.06,-0.115
7.062,-0.11
7.064,-0.105
7.066,-0.095
7.068,-0.09
7.07,-0.085
7.072,-0.08
7.074,-0.085
7.076,-0.09
7.078,-0.105
7.08,-0.12
7.082,-0.13
7.084,-0.14
7.086,-0.145
7.088,-0.14
7.09,-0.13
7.092,-0.115
7.094,-0.095
7.096,-0.075
7.098,-0.06
7.1,-0.05
7.102,-0.05
7.104,-0.055
7.106,-0.065
7.108,-0.085
7.11,-0.1
7.112,-0.12
7.114,-0.13
7.116,-0.14
7.118,-0.14
7.12,-0.135
7.122,-0.125
7.124,-0.11
7.126,-0.1
7.128,-0.095
7.13,-0.09
7.132,-0.085
7.134,-0.085
7.136,-0.085
7.138,-0.08
7.14,-0.075
7.142,-0.07
7.144,-0.06
7.146,-0.05
7.148,-0.045
7.15,-0.04
7.152,-0.04
7.154,-0.045
7.156,-0.05
7.158,-0.06
7.16,-0.065
7.162,-0.065
7.164,-0.065
7.166,-0.06
7.168,-0.05
7.17,-0.045
7.172,-0.04
7.174,-0.035
7.176,-0.035
7.178,-0.04
7.18,-0.045
7.182,-0.045
7.184,-0.045
7.186,-0.045
7.188,-0.04
7.19,-0.03
7.192,-0.02
7.194,-0.01
7.196,0
7.198,0.01
7.2,0.015
7.202,0.02
7.204,0.03
7.206,0.035
7.208,0.045
7.21,0.05
7.212,0.055
7.214,0.06
7.216,0.06
7.218,0.065
7.22,0.065
7.222,0.065
7.224,0.07
7.226,0.075
7.228,0.085
7.23,0.095
7.232,0.105
7.234,0.11
7.236,0.115
7.238,0.11
7.24,0.1
7.242,0.09
7.244,0.08
7.246,0.07
7.248,0.07
7.25,0.075
7.252,0.085
7.254,0.095
7.256,0.11
7.258,0.115
7.26,0.12
7.262,0.115
7.264,0.105
7.266,0.09
7.268,0.08
7.27,0.07
7.272,0.065
7.274,0.065
7.276,0.065
7.278,0.065
7.28,0.065
7.282,0.055
7.284,0.04
7.286,0.02
7.288,-0.005
7.29,-0.025
7.292,-0.04
7.294,-0.05
7.296,-0.05
7.298,-0.045
7.3,-0.035
7.302,-0.03
7.304,-0.025
7.306,-0.025
7.308,-0.03
7.31,-0.04
7.312,-0.05
7.314,-0.055
7.316,-0.06
7.318,-0.06
7.32,-0.055
7.322,-0.055
7.324,-0.055
7.326,-0.06
7.328,-0.065
7.33,-0.075
7.332,-0.08
7.334,-0.085
7.336,-0.085
7.338,-0.08
7.34,-0.07
7.342,-0.055
7.344,-0.045
7.346,-0.035
7.348,-0.035
7.35,-0.04
7.352,-0.055
7.354,-0.07
7.356,-0.085
7.358,-0.1
7.36,-0.105
7.362,-0.1
7.364,-0.09
7.366,-0.075
7.368,-0.055
7.37,-0.045
7.372,-0.03
7.374,-0.025
7.376,-0.03
7.378,-0.035
7.38,-0.04
7.382,-0.05
7.384,-0.06
7.386,-0.07
7.388,-0.075
7.39,-0.08
7.392,-0.085
7.394,-0.085
7.396,-0.085
7.398,-0.085
7.4,-0.08
7.402,-0.07
7.404,-0.06
7.406,-0.05
7.408,-0.045
7.41,-0.035
7.412,-0.03
7.414,-0.03
7.416,-0.03
7.418,-0.035
7.42,-0.04
7.422,-0.04
7.424,-0.045
7.426,-0.045
7.428,-0.045
7.43,-0.045
7.432,-0.045
7.434,-0.045
7.436,-0.05
7.438,-0.05
7.44,-0.055
7.442,-0.06
7.444,-0.065
7.446,-0.065
7.448,-0.065
7.45,-0.065
7.452,-0.06
7.454,-0.055
7.456,-0.045
7.458,-0.04
7.46,-0.035
7.462,-0.03
7.464,-0.03
7.466,-0.025
7.468,-0.025
7.47,-0.025
7.472,-0.025
7.474,-0.02
7.476,-0.02
7.478,-0.02
7.48,-0.02
7.482,-0.025
7.484,-0.03
7.486,-0.035
7.488,-0.04
7.49,-0.045
7.492,-0.05
7.494,-0.045
7.496,-0.04
7.498,-0.03
7.5,-0.02
7.502,-0.015
7.504,-0.01
7.506,-0.015
7.508,-0.025
7.51,-0.035
7.512,-0.05
7.514,-0.06
7.516,-0.065
7.518,-0.06
7.52,-0.055
7.522,-0.04
7.524,-0.025
7.526,-0.015
7.528,-0.005
7.53,0
7.532,0
7.534,-0.005
7.536,-0.015
7.538,-0.02
7.54,-0.03
7.542,-0.04
7.544,-0.045
7.546,-0.05
7.548,-0.055
7.55,-0.055
7.552,-0.055
7.554,-0.05
7.556,-0.045
7.558,-0.04
7.56,-0.03
7.562,-0.025
7.564,-0.02
7.566,-0.02
7.568,-0.025
7.57,-0.035
7.572,-0.045
7.574,-0.055
7.576,-0.06
7.578,-0.06
7.58,-0.055
7.582,-0.045
7.584,-0.035
7.586,-0.03
7.588,-0.03
7.59,-0.03
7.592,-0.04
7.594,-0.045
7.596,-0.05
7.598,-0.045
7.6,-0.04
7.602,-0.025
7.604,-0.005
7.606,0.01
7.608,0.025
7.61,0.025
7.612,0.02
7.614,0
7.616,-0.02
7.618,-0.05
7.62,-0.07
7.622,-0.085
7.624,-0.085
7.626,-0.08
7.628,-0.065
7.63,-0.045
7.632,-0.03
7.634,-0.015
7.636,-0.005
7.638,-0.005
7.64,-0.005
7.642,-0.015
7.644,-0.02
7.646,-0.03
7.648,-0.035
7.65,-0.035
7.652,-0.04
7.654,-0.045
7.656,-0.045
7.658,-0.05
7.66,-0.06
7.662,-0.065
7.664,-0.065
7.666,-0.07
7.668,-0.065
7.67,-0.065
7.672,-0.06
7.674,-0.055
7.676,-0.05
7.678,-0.045
7.68,-0.035
7.682,-0.03
7.684,-0.025
7.686,-0.02
7.688,-0.01
7.69,-0.005
7.692,-0.005
7.694,-0.005
7.696,-0.005
7.698,-0.015
7.7,-0.02
7.702,-0.025
7.704,-0.03
7.706,-0.025
7.708,-0.02
7.71,-0.005
7.712,0.01
7.714,0.03
7.716,0.05
7.718,0.065
7.72,0.075
7.722,0.075
7.724,0.07
7.726,0.06
7.728,0.045
7.73,0.035
7.732,0.025
7.734,0.02
7.736,0.02
7.738,0.025
7.74,0.035
7.742,0.04
7.744,0.04
7.746,0.035
7.748,0.02
7.75,0
7.752,-0.02
7.754,-0.045
7.756,-0.06
7.758,-0.075
7.76,-0.08
7.762,-0.075
7.764,-0.07
7.766,-0.065
7.768,-0.06
7.77,-0.06
7.772,-0.065
7.774,-0.075
7.776,-0.09
7.778,-0.1
7.78,-0.105
7.782,-0.11
7.784,-0.105
7.786,-0.1
7.788,-0.095
7.79,-0.09
7.792,-0.09
7.794,-0.09
7.796,-0.095
7.798,-0.1
7.8,-0.1
7.802,-0.1
7.804,-0.09
7.806,-0.085
7.808,-0.08
7.81,-0.08
7.812,-0.085
7.814,-0.11
7.816,-0.14
7.818,-0.175
7.82,-0.205
7.822,-0.23
7.824,-0.23
7.826,-0.205
7.828,-0.145
7.83,-0.06
7.832,0.06
7.834,0.2
7.836,0.355
7.838,0.515
7.84,0.675
7.842,0.83
7.844,0.97
7.846,1.085
7.848,1.17
7.85,1.22
7.852,1.23
7.854,1.19
7.856,1.11
7.858,0.985
7.86,0.825
7.862,0.64
7.864,0.445
7.866,0.26
7.868,0.095
7.87,-0.04
7.872,-0.135
7.874,-0.195
7.876,-0.22
7.878,-0.215
7.88,-0.2
7.882,-0.175
7.884,-0.15
7.886,-0.135
7.888,-0.125
7.89,-0.12
7.892,-0.115
7.894,-0.11
7.896,-0.105
7.898,-0.095
7.9,-0.08
7.902,-0.065
7.904,-0.055
7.906,-0.05
7.908,-0.055
7.91,-0.07
7.912,-0.085
7.914,-0.105
7.916,-0.12
7.918,-0.135
7.92,-0.135
7.922,-0.125
7.924,-0.115
7.926,-0.095
7.928,-0.08
7.93,-0.07
7.932,-0.07
7.934,-0.075
7.936,-0.09
7.938,-0.105
7.94,-0.12
7.942,-0.12
7.944,-0.115
7.946,-0.1
7.948,-0.075
7.95,-0.05
7.952,-0.03
7.954,-0.015
7.956,-0.015
7.958,-0.025
7.96,-0.04
7.962,-0.06
7.964,-0.075
7.966,-0.09
7.968,-0.09
7.97,-0.085
7.972,-0.07
7.974,-0.055
7.976,-0.04
7.978,-0.03
7.98,-0.025
7.982,-0.025
7.984,-0.03
7.986,-0.04
7.988,-0.045
7.99,-0.05
7.992,-0.05
7.994,-0.045
7.996,-0.035
7.998,-0.03
8,-0.025
8.002,-0.02
8.004,-0.015
8.006,-0.015
8.008,-0.02
8.01,-0.02
8.012,-0.015
8.014,-0.015
8.016,-0.01
8.018,-0.01
8.02,-0.01
8.022,-0.01
8.024,-0.01
8.026,-0.005
8.028,0
8.03,0.01
8.032,0.02
8.034,0.035
8.036,0.045
8.038,0.055
8.04,0.065
8.042,0.065
8.044,0.065
8.046,0.065
8.048,0.065
8.05,0.065
8.052,0.07
8.054,0.08
8.056,0.09
8.058,0.095
8.06,0.105
8.062,0.11
8.064,0.11
8.066,0.11
8.068,0.11
8.07,0.11
8.072,0.11
8.074,0.115
8.076,0.12
8.078,0.13
8.08,0.135
8.082,0.145
8.084,0.155
8.086,0.165
8.088,0.17
8.09,0.185
8.092,0.195
8.094,0.205
8.096,0.22
8.098,0.225
8.1,0.23
8.102,0.23
8.104,0.22
8.106,0.21
8.108,0.2
8.11,0.195
8.112,0.185
8.114,0.18
8.116,0.175
8.118,0.175
8.12,0.17
8.122,0.16
8.124,0.15
8.126,0.135
8.128,0.115
8.13,0.1
8.132,0.08
8.134,0.07
8.136,0.06
8.138,0.055
8.14,0.055
8.142,0.055
8.144,0.055
8.146,0.05
8.148,0.05
8.15,0.045
8.152,0.04
8.154,0.03
8.156,0.02
8.158,0.01
8.16,0
8.162,-0.01
8.164,-0.02
8.166,-0.025
8.168,-0.025
8.17,-0.025
8.172,-0.02
8.174,-0.015
8.176,-0.005
8.178,0.005
8.18,0.015
8.182,0.02
8.184,0.025
8.186,0.02
8.188,0.015
8.19,0.005
8.192,-0.005
8.194,-0.015
8.196,-0.02
8.198,-0.025
8.2,-0.025
8.202,-0.02
8.204,-0.02
8.206,-0.02
8.208,-0.02
8.21,-0.02
8.212,-0.025
8.214,-0.035
8.216,-0.04
8.218,-0.05
8.22,-0.055
8.222,-0.055
8.224,-0.055
8.226,-0.05
8.228,-0.04
8.23,-0.03
8.232,-0.02
8.234,-0.015
8.236,-0.005
8.238,0
8.24,0
8.242,-0.005
8.244,-0.01
8.246,-0.015
8.248,-0.02
8.25,-0.025
8.252,-0.03
8.254,-0.035
8.256,-0.035
8.258,-0.04
8.26,-0.04
8.262,-0.04
8.264,-0.04
8.266,-0.035
8.268,-0.03
8.27,-0.025
8.272,-0.015
8.274,-0.01
8.276,-0.01
8.278,-0.015
8.28,-0.025
8.282,-0.035
8.284,-0.05
8.286,-0.065
8.288,-0.075
8.29,-0.075
8.292,-0.065
8.294,-0.05
8.296,-0.025
8.298,0
8.3,0.025
8.302,0.04
8.304,0.05
8.306,0.05
8.308,0.045
8.31,0.03
8.312,0.015
8.314,0
8.316,-0.01
8.318,-0.015
8.32,-0.015
8.322,-0.015
8.324,-0.005
8.326,0
8.328,0.005
8.33,0.01
8.332,0.01
8.334,0.005
8.336,0
8.338,-0.005
8.34,-0.01
8.342,-0.01
8.344,-0.01
8.346,-0.005
8.348,-0.005
8.35,0
8.352,0.005
8.354,0.005
8.356,0
8.358,-0.01
8.36,-0.02
8.362,-0.03
8.364,-0.035
8.366,-0.04
8.368,-0.04
8.37,-0.03
8.372,-0.02
8.374,-0.005
8.376,0.005
8.378,0.015
8.38,0.02
8.382,0.015
8.384,0.005
8.386,-0.005
8.388,-0.02
8.39,-0.03
8.392,-0.035
8.394,-0.04
8.396,-0.04
8.398,-0.04
8.4,-0.035
8.402,-0.04
8.404,-0.04
8.406,-0.045
8.408,-0.05
8.41,-0.05
8.412,-0.045
8.414,-0.04
8.416,-0.025
8.418,-0.015
8.42,-0.005
8.422,-0.005
8.424,-0.01
8.426,-0.025
8.428,-0.045
8.43,-0.065
8.432,-0.08
8.434,-0.09
8.436,-0.09
8.438,-0.075
8.44,-0.055
8.442,-0.035
8.444,-0.01
8.446,0.005
8.448,0.015
8.45,0.015
8.452,0.01
8.454,0
8.456,-0.01
8.458,-0.02
8.46,-0.025
8.462,-0.025
8.464,-0.02
8.466,-0.01
8.468,0.005
8.47,0.015
8.472,0.025
8.474,0.04
8.476,0.045
8.478,0.055
8.48,0.06
8.482,0.065
8.484,0.065
8.486,0.06
8.488,0.05
8.49,0.04
8.492,0.03
8.494,0.02
8.496,0.015
8.498,0.015
8.5,0.015
8.502,0.02
8.504,0.02
8.506,0.02
8.508,0.01
8.51,-0.005
8.512,-0.025
8.514,-0.045
8.516,-0.065
8.518,-0.075
8.52,-0.08
8.522,-0.075
8.524,-0.065
8.526,-0.055
8.528,-0.045
8.53,-0.045
8.532,-0.05
8.534,-0.06
8.536,-0.075
8.538,-0.09
8.54,-0.1
8.542,-0.1
8.544,-0.095
8.546,-0.08
8.548,-0.065
8.55,-0.05
8.552,-0.045
8.554,-0.05
8.556,-0.06
8.558,-0.075
8.56,-0.09
8.562,-0.105
8.564,-0.115
8.566,-0.12
8.568,-0.12
8.57,-0.12
8.572,-0.125
8.574,-0.135
8.576,-0.16
8.578,-0.185
8.58,-0.205
8.582,-0.22
8.584,-0.21
8.586,-0.17
8.588,-0.09
8.59,0.02
8.592,0.16
8.594,0.33
8.596,0.505
8.598,0.685
8.6,0.855
8.602,1
8.604,1.12
8.606,1.205
8.608,1.25
8.61,1.25
8.612,1.205
8.614,1.12
8.616,0.99
8.618,0.83
8.62,0.65
8.622,0.465
8.624,0.285
8.626,0.125
8.628,0
8.63,-0.09
8.632,-0.145
8.634,-0.165
8.636,-0.165
8.638,-0.15
8.64,-0.13
8.642,-0.115
8.644,-0.1
8.646,-0.095
8.648,-0.095
8.65,-0.1
8.652,-0.1
8.654,-0.1
8.656,-0.1
8.658,-0.1
8.66,-0.1
8.662,-0.1
8.664,-0.1
8.666,-0.105
8.668,-0.11
8.67,-0.11
8.672,-0.115
8.674,-0.115
8.676,-0.115
8.678,-0.11
8.68,-0.11
8.682,-0.105
8.684,-0.105
8.686,-0.1
8.688,-0.095
8.69,-0.095
8.692,-0.09
8.694,-0.09
8.696,-0.09
8.698,-0.095
8.7,-0.1
8.702,-0.11
8.704,-0.115
8.706,-0.12
8.708,-0.12
8.71,-0.12
8.712,-0.11
8.714,-0.1
8.716,-0.09
8.718,-0.08
8.72,-0.075
8.722,-0.075
8.724,-0.08
8.726,-0.085
8.728,-0.09
8.73,-0.09
8.732,-0.09
8.734,-0.085
8.736,-0.08
8.738,-0.075
8.74,-0.07
8.742,-0.07
8.744,-0.075
8.746,-0.08
8.748,-0.085
8.75,-0.09
8.752,-0.085
8.754,-0.08
8.756,-0.07
8.758,-0.06
8.76,-0.05
8.762,-0.045
8.764,-0.045
8.766,-0.055
8.768,-0.065
8.77,-0.075
8.772,-0.085
8.774,-0.085
8.776,-0.08
8.778,-0.07
8.78,-0.06
8.782,-0.045
8.784,-0.03
8.786,-0.025
8.788,-0.025
8.79,-0.035
8.792,-0.045
8.794,-0.055
8.796,-0.06
8.798,-0.06
8.8,-0.05
8.802,-0.035
8.804,-0.015
8.806,0.01
8.808,0.025
8.81,0.04
8.812,0.045
8.814,0.04
8.816,0.03
8.818,0.02
8.82,0.01
8.822,0.01
8.824,0.015
8.826,0.03
8.828,0.05
8.83,0.07
8.832,0.085
8.834,0.1
8.836,0.1
8.838,0.1
8.84,0.09
8.842,0.075
8.844,0.07
8.846,0.07
8.848,0.075
8.85,0.09
8.852,0.105
8.854,0.12
8.856,0.13
8.858,0.135
8.86,0.13
8.862,0.12
8.864,0.105
8.866,0.085
8.868,0.075
8.87,0.07
8.872,0.07
8.874,0.075
8.876,0.085
8.878,0.09
8.88,0.09
8.882,0.085
8.884,0.07
8.886,0.05
8.888,0.03
8.89,0.005
8.892,-0.015
8.894,-0.035
8.896,-0.045
8.898,-0.05
8.9,-0.05
8.902,-0.045
8.904,-0.045
8.906,-0.045
8.908,-0.045
8.91,-0.05
8.912,-0.055
8.914,-0.06
8.916,-0.07
8.918,-0.075
8.92,-0.08
8.922,-0.08
8.924,-0.075
8.926,-0.07
8.928,-0.06
8.93,-0.055
8.932,-0.055
8.934,-0.055
8.936,-0.06
8.938,-0.07
8.94,-0.08
8.942,-0.085
8.944,-0.09
8.946,-0.085
8.948,-0.075
8.95,-0.065
8.952,-0.055
8.954,-0.055
8.956,-0.055
8.958,-0.065
8.96,-0.08
8.962,-0.095
8.964,-0.11
8.966,-0.12
8.968,-0.12
8.97,-0.11
8.972,-0.1
8.974,-0.09
8.976,-0.085
8.978,-0.09
8.98,-0.11
8.982,-0.145
8.984,-0.185
8.986,-0.235
8.988,-0.28
8.99,-0.32
8.992,-0.35
8.994,-0.36
8.996,-0.36
8.998,-0.35
9,-0.33
9.002,-0.305
9.004,-0.275
9.006,-0.25
9.008,-0.225
9.01,-0.205
9.012,-0.19
9.014,-0.18
9.016,-0.18
9.018,-0.18
9.02,-0.19
9.022,-0.195
9.024,-0.205
9.026,-0.21
9.028,-0.21
9.03,-0.2
9.032,-0.19
9.034,-0.17
9.036,-0.15
9.038,-0.13
9.04,-0.115
9.042,-0.11
9.044,-0.105
9.046,-0.11
9.048,-0.12
9.05,-0.125
9.052,-0.13
9.054,-0.13
9.056,-0.125
9.058,-0.12
9.06,-0.11
9.062,-0.11
9.064,-0.11
9.066,-0.115
9.068,-0.12
9.07,-0.13
9.072,-0.14
9.074,-0.145
9.076,-0.15
9.078,-0.145
9.08,-0.14
9.082,-0.135
9.084,-0.13
9.086,-0.125
9.088,-0.12
9.09,-0.12
9.092,-0.115
9.094,-0.11
9.096,-0.105
9.098,-0.095
9.1,-0.085
9.102,-0.075
9.104,-0.07
9.106,-0.07
9.108,-0.075
9.11,-0.085
9.112,-0.095
9.114,-0.11
9.116,-0.115
9.118,-0.12
9.12,-0.12
9.122,-0.11
9.124,-0.105
9.126,-0.1
9.128,-0.095
9.13,-0.1
9.132,-0.105
9.134,-0.12
9.136,-0.13
9.138,-0.135
9.14,-0.14
9.142,-0.14
9.144,-0.135
9.146,-0.125
9.148,-0.115
9.15,-0.105
9.152,-0.1
9.154,-0.095
9.156,-0.095
9.158,-0.095
9.16,-0.095
9.162,-0.1
9.164,-0.1
9.166,-0.1
9.168,-0.105
9.17,-0.11
9.172,-0.115
9.174,-0.125
9.176,-0.13
9.178,-0.135
9.18,-0.135
9.182,-0.13
9.184,-0.13
9.186,-0.125
9.188,-0.12
9.19,-0.12
9.192,-0.12
9.194,-0.125
9.196,-0.13
9.198,-0.135
9.2,-0.14
9.202,-0.135
9.204,-0.125
9.206,-0.115
9.208,-0.1
9.21,-0.085
9.212,-0.08
9.214,-0.075
9.216,-0.08
9.218,-0.085
9.22,-0.1
9.222,-0.11
9.224,-0.115
9.226,-0.12
9.228,-0.115
9.23,-0.105
9.232,-0.095
9.234,-0.08
9.236,-0.07
9.238,-0.065
9.24,-0.07
9.242,-0.075
9.244,-0.085
9.246,-0.095
9.248,-0.105
9.25,-0.11
9.252,-0.105
9.254,-0.1
9.256,-0.085
9.258,-0.065
9.26,-0.04
9.262,-0.02
9.264,0.005
9.266,0.02
9.268,0.025
9.27,0.03
9.272,0.02
9.274,0.01
9.276,-0.005
9.278,-0.025
9.28,-0.04
9.282,-0.05
9.284,-0.05
9.286,-0.045
9.288,-0.04
9.29,-0.025
9.292,-0.015
9.294,-0.01
9.296,-0.01
9.298,-0.02
9.3,-0.03
9.302,-0.045
9.304,-0.065
9.306,-0.08
9.308,-0.095
9.31,-0.1
9.312,-0.105
9.314,-0.105
9.316,-0.105
9.318,-0.11
9.32,-0.11
9.322,-0.115
9.324,-0.12
9.326,-0.125
9.328,-0.125
9.33,-0.125
9.332,-0.12
9.334,-0.12
9.336,-0.115
9.338,-0.115
9.34,-0.12
9.342,-0.125
9.344,-0.13
9.346,-0.135
9.348,-0.14
9.35,-0.135
9.352,-0.13
9.354,-0.12
9.356,-0.115
9.358,-0.115
9.36,-0.12
9.362,-0.14
9.364,-0.165
9.366,-0.195
9.368,-0.22
9.37,-0.23
9.372,-0.225
9.374,-0.195
9.376,-0.13
9.378,-0.04
9.38,0.08
9.382,0.22
9.384,0.38
9.386,0.55
9.388,0.72
9.39,0.88
9.392,1.03
9.394,1.15
9.396,1.24
9.398,1.29
9.4,1.29
9.402,1.245
9.404,1.155
9.406,1.025
9.408,0.86
9.41,0.685
9.412,0.505
9.414,0.34
9.416,0.195
9.418,0.085
9.42,0.005
9.422,-0.04
9.424,-0.065
9.426,-0.075
9.428,-0.075
9.43,-0.075
9.432,-0.075
9.434,-0.08
9.436,-0.09
9.438,-0.1
9.44,-0.11
9.442,-0.11
9.444,-0.115
9.446,-0.115
9.448,-0.11
9.45,-0.11
9.452,-0.11
9.454,-0.11
9.456,-0.11
9.458,-0.11
9.46,-0.11
9.462,-0.105
9.464,-0.1
9.466,-0.09
9.468,-0.09
9.47,-0.09
9.472,-0.095
9.474,-0.105
9.476,-0.115
9.478,-0.125
9.48,-0.13
9.482,-0.13
9.484,-0.125
9.486,-0.11
9.488,-0.095
9.49,-0.08
9.492,-0.065
9.494,-0.05
9.496,-0.045
9.498,-0.045
9.5,-0.05
9.502,-0.055
9.504,-0.06
9.506,-0.065
9.508,-0.065
9.51,-0.07
9.512,-0.07
9.514,-0.075
9.516,-0.08
9.518,-0.09
9.52,-0.095
9.522,-0.095
9.524,-0.095
9.526,-0.09
9.528,-0.08
9.53,-0.065
9.532,-0.05
9.534,-0.03
9.536,-0.02
9.538,-0.015
9.54,-0.015
9.542,-0.02
9.544,-0.03
9.546,-0.04
9.548,-0.05
9.55,-0.06
9.552,-0.06
9.554,-0.06
9.556,-0.05
9.558,-0.035
9.56,-0.02
9.562,-0.005
9.564,0.01
9.566,0.02
9.568,0.025
9.57,0.025
9.572,0.015
9.574,0.005
9.576,-0.005
9.578,-0.015
9.58,-0.02
9.582,-0.02
9.584,-0.015
9.586,-0.005
9.588,0.01
9.59,0.025
9.592,0.04
9.594,0.055
9.596,0.065
9.598,0.065
9.6,0.065
9.602,0.06
9.604,0.05
9.606,0.045
9.608,0.04
9.61,0.045
9.612,0.055
9.614,0.07
9.616,0.09
9.618,0.11
9.62,0.13
9.622,0.145
9.624,0.155
9.626,0.16
9.628,0.16
9.63,0.155
9.632,0.15
9.634,0.145
9.636,0.14
9.638,0.14
9.64,0.145
9.642,0.155
9.644,0.165
9.646,0.175
9.648,0.18
9.65,0.19
9.652,0.19
9.654,0.19
9.656,0.185
9.658,0.18
9.66,0.17
9.662,0.16
9.664,0.15
9.666,0.14
9.668,0.135
9.67,0.135
9.672,0.135
9.674,0.14
9.676,0.14
9.678,0.14
9.68,0.14
9.682,0.13
9.684,0.12
9.686,0.105
9.688,0.09
9.69,0.08
9.692,0.07
9.694,0.06
9.696,0.06
9.698,0.06
9.7,0.065
9.702,0.065
9.704,0.065
9.706,0.065
9.708,0.06
9.71,0.055
9.712,0.05
9.714,0.045
9.716,0.045
9.718,0.045
9.72,0.045
9.722,0.045
9.724,0.045
9.726,0.045
9.728,0.04
9.73,0.035
9.732,0.035
9.734,0.035
9.736,0.04
9.738,0.045
9.74,0.055
9.742,0.065
9.744,0.07
9.746,0.07
9.748,0.07
9.75,0.065
9.752,0.055
9.754,0.05
9.756,0.04
9.758,0.035
9.76,0.035
9.762,0.035
9.764,0.035
9.766,0.04
9.768,0.04
9.77,0.04
9.772,0.04
9.774,0.045
9.776,0.045
9.778,0.05
9.78,0.055
9.782,0.06
9.784,0.06
9.786,0.055
9.788,0.05
9.79,0.04
9.792,0.03
9.794,0.025
9.796,0.02
9.798,0.02
9.8,0.025
9.802,0.035
9.804,0.04
9.806,0.05
9.808,0.05
9.81,0.05
9.812,0.045
9.814,0.04
9.816,0.035
9.818,0.03
9.82,0.025
9.822,0.03
9.824,0.03
9.826,0.03
9.828,0.025
9.83,0.02
9.832,0.015
9.834,0.005
9.836,0
9.838,-0.005
9.84,0
9.842,0.01
9.844,0.025
9.846,0.04
9.848,0.055
9.85,0.06
9.852,0.065
9.854,0.06
9.856,0.045
9.858,0.03
9.86,0.015
9.862,0
9.864,-0.005
9.866,-0.005
9.868,0
9.87,0.01
9.872,0.02
9.874,0.035
9.876,0.04
9.878,0.045
9.88,0.05
9.882,0.05
9.884,0.045
9.886,0.04
9.888,0.035
9.89,0.03
9.892,0.02
9.894,0.01
9.896,0
9.898,-0.01
9.9,-0.015
9.902,-0.015
9.904,-0.01
9.906,-0.005
9.908,0.005
9.91,0.015
9.912,0.025
9.914,0.025
9.916,0.025
9.918,0.02
9.92,0.01
9.922,0
9.924,-0.01
9.926,-0.01
9.928,-0.005
9.93,0
9.932,0.01
9.934,0.02
9.936,0.025
9.938,0.03
9.94,0.025
9.942,0.02
9.944,0.01
9.946,0
9.948,-0.005
9.95,-0.005
9.952,-0.005
9.954,0
9.956,0.005
9.958,0.01
9.96,0.005
9.962,0
9.964,-0.015
9.966,-0.03
9.968,-0.045
9.97,-0.055
9.972,-0.055
9.974,-0.055
9.976,-0.04
9.978,-0.02
9.98,0
9.982,0.015
9.984,0.03
9.986,0.035
9.988,0.035
9.99,0.025
9.992,0.01
9.994,-0.01
9.996,-0.025
9.998,-0.035
