0,0.17
0.002,0.065
0.004,-0.01
0.006,-0.065
0.008,-0.09
0.01,-0.09
0.012,-0.065
0.014,-0.03
0.016,0.01
0.018,0.04
0.02,0.05
0.022,0.05
0.024,0.03
0.026,0.01
0.028,-0.015
0.03,-0.025
0.032,-0.025
0.034,-0.01
0.036,0.015
0.038,0.035
0.04,0.055
0.042,0.065
0.044,0.065
0.046,0.05
0.048,0.03
0.05,0.005
0.052,-0.01
0.054,-0.015
0.056,-0.015
0.058,-0.005
0.06,0.01
0.062,0.02
0.064,0.025
0.066,0.02
0.068,0.01
0.07,-0.005
0.072,-0.02
0.074,-0.03
0.076,-0.035
0.078,-0.035
0.08,-0.025
0.082,-0.01
0.084,0.005
0.086,0.015
0.088,0.015
0.09,0.01
0.092,-0.005
0.094,-0.015
0.096,-0.03
0.098,-0.035
0.1,-0.035
0.102,-0.025
0.104,-0.01
0.106,0.005
0.108,0.025
0.11,0.035
0.112,0.035
0.114,0.035
0.116,0.025
0.118,0.015
0.12,0.005
0.122,0
0.124,-0.005
0.126,-0.01
0.128,-0.01
0.13,-0.015
0.132,-0.02
0.134,-0.03
0.136,-0.04
0.138,-0.055
0.14,-0.065
0.142,-0.07
0.144,-0.07
0.146,-0.065
0.148,-0.06
0.15,-0.045
0.152,-0.035
0.154,-0.02
0.156,-0.01
0.158,-0.005
0.16,0
0.162,0.005
0.164,0.01
0.166,0.015
0.168,0.01
0.17,0.01
0.172,0
0.174,-0.015
0.176,-0.03
0.178,-0.045
0.18,-0.055
0.182,-0.065
0.184,-0.07
0.186,-0.06
0.188,-0.05
0.19,-0.035
0.192,-0.015
0.194,0
0.196,0.01
0.198,0.015
0.2,0.01
0.202,0.005
0.204,-0.005
0.206,-0.015
0.208,-0.025
0.21,-0.035
0.212,-0.04
0.214,-0.04
0.216,-0.04
0.218,-0.04
0.22,-0.04
0.222,-0.035
0.224,-0.035
0.226,-0.03
0.228,-0.03
0.23,-0.03
0.232,-0.03
0.234,-0.03
0.236,-0.035
0.238,-0.04
0.24,-0.045
0.242,-0.045
0.244,-0.045
0.246,-0.045
0.248,-0.04
0.25,-0.03
0.252,-0.02
0.254,-0.015
0.256,-0.005
0.258,0
0.26,0
0.262,0
0.264,-0.005
0.266,-0.015
0.268,-0.025
0.27,-0.035
0.272,-0.05
0.274,-0.055
0.276,-0.06
0.278,-0.06
0.28,-0.055
0.282,-0.045
0.284,-0.03
0.286,-0.015
0.288,0
0.29,0.01
0.292,0.015
0.294,0.015
0.296,0.01
0.298,0
0.3,-0.01
0.302,-0.015
0.304,-0.02
0.306,-0.02
0.308,-0.02
0.31,-0.02
0.312,-0.02
0.314,-0.025
0.316,-0.035
0.318,-0.045
0.32,-0.055
0.322,-0.065
0.324,-0.065
0.326,-0.06
0.328,-0.05
0.33,-0.035
0.332,-0.02
0.334,-0.01
0.336,-0.01
0.338,-0.015
0.34,-0.03
0.342,-0.045
0.344,-0.055
0.346,-0.065
0.348,-0.065
0.35,-0.06
0.352,-0.05
0.354,-0.04
0.356,-0.025
0.358,-0.02
0.36,-0.015
0.362,-0.015
0.364,-0.02
0.366,-0.02
0.368,-0.02
0.37,-0.015
0.372,-0.01
0.374,0
0.376,0.01
0.378,0.015
0.38,0.015
0.382,0.01
0.384,0.005
0.386,-0.005
0.388,-0.015
0.39,-0.025
0.392,-0.035
0.394,-0.045
0.396,-0.055
0.398,-0.065
0.4,-0.075
0.402,-0.08
0.404,-0.085
0.406,-0.08
0.408,-0.07
0.41,-0.05
0.412,-0.03
0.414,-0.005
0.416,0.015
0.418,0.025
0.42,0.025
0.422,0.015
0.424,0
0.426,-0.025
0.428,-0.045
0.43,-0.06
0.432,-0.065
0.434,-0.065
0.436,-0.055
0.438,-0.04
0.44,-0.02
0.442,-0.01
0.444,-0.005
0.446,-0.005
0.448,-0.01
0.45,-0.015
0.452,-0.02
0.454,-0.02
0.456,-0.015
0.458,-0.005
0.46,0.01
0.462,0.02
0.464,0.03
0.466,0.03
0.468,0.025
0.47,0.02
0.472,0.01
0.474,0.005
0.476,0
0.478,0.005
0.48,0.015
0.482,0.025
0.484,0.035
0.486,0.045
0.488,0.05
0.49,0.05
0.492,0.045
0.494,0.035
0.496,0.02
0.498,0.01
0.5,-0.005
0.502,-0.015
0.504,-0.02
0.506,-0.03
0.508,-0.04
0.51,-0.045
0.512,-0.055
0.514,-0.06
0.516,-0.065
0.518,-0.065
0.52,-0.065
0.522,-0.055
0.524,-0.05
0.526,-0.045
0.528,-0.045
0.53,-0.05
0.532,-0.06
0.534,-0.07
0.536,-0.075
0.538,-0.08
0.54,-0.08
0.542,-0.075
0.544,-0.06
0.546,-0.045
0.548,-0.03
0.55,-0.02
0.552,-0.02
0.554,-0.025
0.556,-0.04
0.558,-0.055
0.56,-0.075
0.562,-0.085
0.564,-0.09
0.566,-0.085
0.568,-0.08
0.57,-0.065
0.572,-0.055
0.574,-0.045
0.576,-0.045
0.578,-0.045
0.58,-0.055
0.582,-0.065
0.584,-0.075
0.586,-0.075
0.588,-0.075
0.59,-0.07
0.592,-0.065
0.594,-0.05
0.596,-0.04
0.598,-0.025
0.6,-0.005
0.602,0.02
0.604,0.055
0.606,0.1
0.608,0.16
0.61,0.23
0.612,0.3
0.614,0.37
0.616,0.425
0.618,0.46
0.62,0.46
0.622,0.43
0.624,0.365
0.626,0.28
0.628,0.175
0.63,0.06
0.632,-0.045
0.634,-0.135
0.636,-0.205
0.638,-0.25
0.64,-0.28
0.642,-0.29
0.644,-0.29
0.646,-0.28
0.648,-0.275
0.65,-0.26
0.652,-0.25
0.654,-0.235
0.656,-0.22
0.658,-0.195
0.66,-0.17
0.662,-0.14
0.664,-0.11
0.666,-0.085
0.668,-0.06
0.67,-0.05
0.672,-0.045
0.674,-0.05
0.676,-0.06
0.678,-0.07
0.68,-0.08
0.682,-0.085
0.684,-0.09
0.686,-0.09
0.688,-0.085
0.69,-0.085
0.692,-0.075
0.694,-0.07
0.696,-0.065
0.698,-0.06
0.7,-0.05
0.702,-0.045
0.704,-0.04
0.706,-0.04
0.708,-0.035
0.71,-0.035
0.712,-0.04
0.714,-0.04
0.716,-0.035
0.718,-0.03
0.72,-0.025
0.722,-0.015
0.724,-0.005
0.726,0
0.728,0.005
0.73,0.005
0.732,0
0.734,-0.01
0.736,-0.025
0.738,-0.035
0.74,-0.045
0.742,-0.05
0.744,-0.045
0.746,-0.04
0.748,-0.03
0.75,-0.02
0.752,-0.01
0.754,0
0.756,0.005
0.758,0.01
0.76,0.015
0.762,0.02
0.764,0.02
0.766,0.025
0.768,0.025
0.77,0.03
0.772,0.03
0.774,0.03
0.776,0.03
0.778,0.03
0.78,0.035
0.782,0.04
0.784,0.045
0.786,0.05
0.788,0.06
0.79,0.065
0.792,0.075
0.794,0.08
0.796,0.09
0.798,0.1
0.8,0.115
0.802,0.13
0.804,0.15
0.806,0.165
0.808,0.18
0.81,0.195
0.812,0.205
0.814,0.215
0.816,0.22
0.818,0.225
0.82,0.235
0.822,0.25
0.824,0.27
0.826,0.295
0.828,0.32
0.83,0.345
0.832,0.365
0.834,0.38
0.836,0.385
0.838,0.38
0.84,0.375
0.842,0.37
0.844,0.365
0.846,0.365
0.848,0.37
0.85,0.385
0.852,0.395
0.854,0.405
0.856,0.415
0.858,0.42
0.86,0.415
0.862,0.41
0.864,0.4
0.866,0.395
0.868,0.385
0.87,0.38
0.872,0.375
0.874,0.365
0.876,0.355
0.878,0.345
0.88,0.325
0.882,0.305
0.884,0.28
0.886,0.255
0.888,0.23
0.89,0.21
0.892,0.195
0.894,0.18
0.896,0.165
0.898,0.15
0.9,0.14
0.902,0.125
0.904,0.11
0.906,0.095
0.908,0.08
0.91,0.065
0.912,0.045
0.914,0.03
0.916,0.01
0.918,-0.005
0.92,-0.02
0.922,-0.035
0.924,-0.04
0.926,-0.045
0.928,-0.04
0.93,-0.03
0.932,-0.02
0.934,-0.005
0.936,0
0.938,0.005
0.94,0
0.942,-0.01
0.944,-0.03
0.946,-0.05
0.948,-0.07
0.95,-0.09
0.952,-0.1
0.954,-0.1
0.956,-0.095
0.958,-0.08
0.96,-0.06
0.962,-0.045
0.964,-0.03
0.966,-0.02
0.968,-0.02
0.97,-0.03
0.972,-0.04
0.974,-0.055
0.976,-0.065
0.978,-0.075
0.98,-0.075
0.982,-0.07
0.984,-0.065
0.986,-0.055
0.988,-0.05
0.99,-0.05
0.992,-0.05
0.994,-0.06
0.996,-0.065
0.998,-0.07
1,-0.07
1.002,-0.06
1.004,-0.05
1.006,-0.03
1.008,-0.015
1.01,-0.005
1.012,0
1.014,-0.005
1.016,-0.02
1.018,-0.04
1.02,-0.065
1.022,-0.08
1.024,-0.09
1.026,-0.085
1.028,-0.07
1.03,-0.045
1.032,-0.02
1.034,0.01
1.036,0.035
1.038,0.045
1.04,0.045
1.042,0.03
1.044,0.01
1.046,-0.015
1.048,-0.04
1.05,-0.065
1.052,-0.075
1.054,-0.075
1.056,-0.07
1.058,-0.055
1.06,-0.04
1.062,-0.03
1.064,-0.02
1.066,-0.015
1.068,-0.02
1.07,-0.025
1.072,-0.035
1.074,-0.04
1.076,-0.05
1.078,-0.05
1.08,-0.05
1.082,-0.045
1.084,-0.04
1.086,-0.035
1.088,-0.035
1.09,-0.04
1.092,-0.045
1.094,-0.05
1.096,-0.055
1.098,-0.06
1.1,-0.06
1.102,-0.055
1.104,-0.045
1.106,-0.035
1.108,-0.025
1.11,-0.02
1.112,-0.015
1.114,-0.015
1.116,-0.015
1.118,-0.025
1.12,-0.035
1.122,-0.045
1.124,-0.05
1.126,-0.06
1.128,-0.065
1.13,-0.07
1.132,-0.075
1.134,-0.08
1.136,-0.085
1.138,-0.09
1.14,-0.09
1.142,-0.09
1.144,-0.09
1.146,-0.08
1.148,-0.075
1.15,-0.065
1.152,-0.055
1.154,-0.05
1.156,-0.05
1.158,-0.055
1.16,-0.065
1.162,-0.075
1.164,-0.085
1.166,-0.085
1.168,-0.085
1.17,-0.075
1.172,-0.06
1.174,-0.045
1.176,-0.035
1.178,-0.03
1.18,-0.035
1.182,-0.045
1.184,-0.065
1.186,-0.085
1.188,-0.105
1.19,-0.12
1.192,-0.125
1.194,-0.12
1.196,-0.11
1.198,-0.095
1.2,-0.085
1.202,-0.08
1.204,-0.085
1.206,-0.09
1.208,-0.1
1.21,-0.105
1.212,-0.11
1.214,-0.11
1.216,-0.1
1.218,-0.09
1.22,-0.075
1.222,-0.07
1.224,-0.065
1.226,-0.075
1.228,-0.09
1.23,-0.105
1.232,-0.125
1.234,-0.135
1.236,-0.135
1.238,-0.125
1.24,-0.11
1.242,-0.09
1.244,-0.065
1.246,-0.045
1.248,-0.03
1.25,-0.025
1.252,-0.03
1.254,-0.04
1.256,-0.05
1.258,-0.065
1.26,-0.08
1.262,-0.09
1.264,-0.1
1.266,-0.11
1.268,-0.115
1.27,-0.12
1.272,-0.125
1.274,-0.12
1.276,-0.11
1.278,-0.1
1.28,-0.08
1.282,-0.06
1.284,-0.045
1.286,-0.03
1.288,-0.02
1.29,-0.02
1.292,-0.03
1.294,-0.04
1.296,-0.05
1.298,-0.06
1.3,-0.07
1.302,-0.075
1.304,-0.075
1.306,-0.08
1.308,-0.085
1.31,-0.09
1.312,-0.095
1.314,-0.105
1.316,-0.11
1.318,-0.115
1.32,-0.115
1.322,-0.105
1.324,-0.095
1.326,-0.08
1.328,-0.065
1.33,-0.05
1.332,-0.04
1.334,-0.04
1.336,-0.045
1.338,-0.055
1.34,-0.07
1.342,-0.08
1.344,-0.09
1.346,-0.095
1.348,-0.095
1.35,-0.09
1.352,-0.075
1.354,-0.065
1.356,-0.05
1.358,-0.035
1.36,-0.02
1.362,-0.015
1.364,-0.01
1.366,-0.015
1.368,-0.025
1.37,-0.04
1.372,-0.055
1.374,-0.07
1.376,-0.08
1.378,-0.085
1.38,-0.08
1.382,-0.07
1.384,-0.05
1.386,-0.025
1.388,0
1.39,0.02
1.392,0.035
1.394,0.04
1.396,0.04
1.398,0.035
1.4,0.02
1.402,0.01
1.404,0
1.406,-0.005
1.408,-0.01
1.41,-0.005
1.412,0.005
1.414,0.015
1.416,0.02
1.418,0.025
1.42,0.03
1.422,0.025
1.424,0.015
1.426,0.005
1.428,-0.01
1.43,-0.02
1.432,-0.035
1.434,-0.045
1.436,-0.055
1.438,-0.06
1.44,-0.06
1.442,-0.06
1.444,-0.06
1.446,-0.055
1.448,-0.055
1.45,-0.055
1.452,-0.055
1.454,-0.055
1.456,-0.06
1.458,-0.06
1.46,-0.065
1.462,-0.065
1.464,-0.065
1.466,-0.07
1.468,-0.07
1.47,-0.07
1.472,-0.075
1.474,-0.075
1.476,-0.08
1.478,-0.09
1.48,-0.09
1.482,-0.095
1.484,-0.095
1.486,-0.09
1.488,-0.08
1.49,-0.07
1.492,-0.06
1.494,-0.05
1.496,-0.045
1.498,-0.04
1.5,-0.045
1.502,-0.05
1.504,-0.065
1.506,-0.075
1.508,-0.085
1.51,-0.09
1.512,-0.09
1.514,-0.09
1.516,-0.085
1.518,-0.08
1.52,-0.07
1.522,-0.065
1.524,-0.06
1.526,-0.045
1.528,-0.025
1.53,0.005
1.532,0.045
1.534,0.1
1.536,0.165
1.538,0.24
1.54,0.305
1.542,0.365
1.544,0.41
1.546,0.43
1.548,0.43
1.55,0.4
1.552,0.345
1.554,0.275
1.556,0.19
1.558,0.095
1.56,0.005
1.562,-0.085
1.564,-0.165
1.566,-0.23
1.568,-0.285
1.57,-0.315
1.572,-0.335
1.574,-0.335
1.576,-0.325
1.578,-0.305
1.58,-0.28
1.582,-0.26
1.584,-0.24
1.586,-0.225
1.588,-0.21
1.59,-0.2
1.592,-0.19
1.594,-0.17
1.596,-0.145
1.598,-0.115
1.6,-0.08
1.602,-0.05
1.604,-0.025
1.606,-0.015
1.608,-0.015
1.61,-0.03
1.612,-0.05
1.614,-0.075
1.616,-0.1
1.618,-0.115
1.62,-0.115
1.622,-0.11
1.624,-0.095
1.626,-0.075
1.628,-0.05
1.63,-0.03
1.632,-0.02
1.634,-0.01
1.636,-0.01
1.638,-0.01
1.64,-0.01
1.642,-0.015
1.644,-0.015
1.646,-0.015
1.648,-0.015
1.65,-0.02
1.652,-0.025
1.654,-0.03
1.656,-0.04
1.658,-0.05
1.66,-0.06
1.662,-0.06
1.664,-0.06
1.666,-0.055
1.668,-0.045
1.67,-0.035
1.672,-0.02
1.674,-0.01
1.676,-0.005
1.678,0
1.68,-0.005
1.682,-0.005
1.684,-0.01
1.686,-0.015
1.688,-0.02
1.69,-0.02
1.692,-0.015
1.694,-0.01
1.696,0
1.698,0.01
1.7,0.02
1.702,0.03
1.704,0.04
1.706,0.045
1.708,0.05
1.71,0.055
1.712,0.06
1.714,0.065
1.716,0.07
1.718,0.08
1.72,0.09
1.722,0.1
1.724,0.11
1.726,0.12
1.728,0.13
1.73,0.145
1.732,0.155
1.734,0.165
1.736,0.175
1.738,0.185
1.74,0.195
1.742,0.205
1.744,0.215
1.746,0.23
1.748,0.245
1.75,0.26
1.752,0.275
1.754,0.295
1.756,0.31
1.758,0.325
1.76,0.34
1.762,0.35
1.764,0.365
1.766,0.37
1.768,0.38
1.77,0.385
1.772,0.395
1.774,0.4
1.776,0.41
1.778,0.42
1.78,0.425
1.782,0.435
1.784,0.44
1.786,0.445
1.788,0.445
1.79,0.44
1.792,0.435
1.794,0.425
1.796,0.405
1.798,0.385
1.8,0.36
1.802,0.335
1.804,0.31
1.806,0.285
1.808,0.27
1.81,0.255
1.812,0.245
1.814,0.24
1.816,0.235
1.818,0.225
1.82,0.22
1.822,0.205
1.824,0.19
1.826,0.17
1.828,0.15
1.83,0.135
1.832,0.12
1.834,0.105
1.836,0.095
1.838,0.085
1.84,0.075
1.842,0.065
1.844,0.055
1.846,0.04
1.848,0.03
1.85,0.02
1.852,0.015
1.854,0.015
1.856,0.02
1.858,0.025
1.86,0.035
1.862,0.04
1.864,0.04
1.866,0.035
1.868,0.025
1.87,0.01
1.872,-0.005
1.874,-0.025
1.876,-0.035
1.878,-0.045
1.88,-0.05
1.882,-0.055
1.884,-0.05
1.886,-0.05
1.888,-0.045
1.89,-0.04
1.892,-0.035
1.894,-0.03
1.896,-0.025
1.898,-0.02
1.9,-0.015
1.902,-0.01
1.904,-0.01
1.906,-0.015
1.908,-0.015
1.91,-0.025
1.912,-0.03
1.914,-0.03
1.916,-0.03
1.918,-0.025
1.92,-0.02
1.922,-0.005
1.924,0.01
1.926,0.02
1.928,0.035
1.93,0.04
1.932,0.04
1.934,0.04
1.936,0.03
1.938,0.02
1.94,0.005
1.942,-0.005
1.944,-0.02
1.946,-0.025
1.948,-0.03
1.95,-0.03
1.952,-0.025
1.954,-0.015
1.956,-0.005
1.958,0.005
1.96,0.01
1.962,0.015
1.964,0.01
1.966,0.005
1.968,0
1.97,-0.01
1.972,-0.02
1.974,-0.025
1.976,-0.025
1.978,-0.025
1.98,-0.02
1.982,-0.015
1.984,-0.015
1.986,-0.015
1.988,-0.015
1.99,-0.02
1.992,-0.02
1.994,-0.025
1.996,-0.025
1.998,-0.02
2,-0.015
2.002,-0.01
2.004,-0.005
2.006,-0.005
2.008,0
2.01,-0.005
2.012,-0.01
2.014,-0.015
2.016,-0.02
2.018,-0.02
2.02,-0.02
2.022,-0.02
2.024,-0.015
2.026,-0.01
2.028,-0.01
2.03,-0.01
2.032,-0.01
2.034,-0.02
2.036,-0.025
2.038,-0.035
2.04,-0.045
2.042,-0.05
2.044,-0.055
2.046,-0.055
2.048,-0.055
2.05,-0.05
2.052,-0.05
2.054,-0.045
2.056,-0.045
2.058,-0.045
2.06,-0.04
2.062,-0.04
2.064,-0.04
2.066,-0.035
2.068,-0.03
2.07,-0.02
2.072,-0.015
2.074,-0.015
2.076,-0.015
2.078,-0.02
2.08,-0.03
2.082,-0.045
2.084,-0.055
2.086,-0.06
2.088,-0.065
2.09,-0.06
2.092,-0.055
2.094,-0.045
2.096,-0.035
2.098,-0.025
2.1,-0.015
2.102,-0.015
2.104,-0.02
2.106,-0.03
2.108,-0.04
2.11,-0.05
2.112,-0.06
2.114,-0.06
2.116,-0.06
2.118,-0.055
2.12,-0.05
2.122,-0.04
2.124,-0.035
2.126,-0.035
2.128,-0.035
2.13,-0.04
2.132,-0.045
2.134,-0.05
2.136,-0.06
2.138,-0.07
2.14,-0.075
2.142,-0.075
2.144,-0.075
2.146,-0.07
2.148,-0.065
2.15,-0.055
2.152,-0.045
2.154,-0.04
2.156,-0.04
2.158,-0.045
2.16,-0.055
2.162,-0.07
2.164,-0.085
2.166,-0.1
2.168,-0.11
2.17,-0.11
2.172,-0.1
2.174,-0.085
2.176,-0.07
2.178,-0.05
2.18,-0.035
2.182,-0.025
2.184,-0.02
2.186,-0.025
2.188,-0.035
2.19,-0.045
2.192,-0.055
2.194,-0.055
2.196,-0.055
2.198,-0.05
2.2,-0.045
2.202,-0.035
2.204,-0.035
2.206,-0.035
2.208,-0.04
2.21,-0.045
2.212,-0.055
2.214,-0.065
2.216,-0.07
2.218,-0.075
2.22,-0.075
2.222,-0.07
2.224,-0.065
2.226,-0.06
2.228,-0.055
2.23,-0.055
2.232,-0.05
2.234,-0.05
2.236,-0.05
2.238,-0.055
2.24,-0.055
2.242,-0.06
2.244,-0.065
2.246,-0.07
2.248,-0.075
2.25,-0.08
2.252,-0.085
2.254,-0.085
2.256,-0.085
2.258,-0.075
2.26,-0.07
2.262,-0.06
2.264,-0.05
2.266,-0.04
2.268,-0.03
2.27,-0.025
2.272,-0.03
2.274,-0.03
2.276,-0.04
2.278,-0.05
2.28,-0.06
2.282,-0.065
2.284,-0.07
2.286,-0.075
2.288,-0.07
2.29,-0.065
2.292,-0.06
2.294,-0.055
2.296,-0.055
2.298,-0.055
2.3,-0.06
2.302,-0.07
2.304,-0.075
2.306,-0.075
2.308,-0.07
2.31,-0.055
2.312,-0.035
2.314,-0.015
2.316,0
2.318,0.015
2.32,0.015
2.322,0.005
2.324,-0.02
2.326,-0.045
2.328,-0.07
2.33,-0.095
2.332,-0.105
2.334,-0.11
2.336,-0.105
2.338,-0.09
2.34,-0.075
2.342,-0.06
2.344,-0.05
2.346,-0.045
2.348,-0.045
2.35,-0.045
2.352,-0.05
2.354,-0.045
2.356,-0.04
2.358,-0.035
2.36,-0.03
2.362,-0.025
2.364,-0.025
2.366,-0.03
2.368,-0.045
2.37,-0.055
2.372,-0.07
2.374,-0.08
2.376,-0.08
2.378,-0.075
2.38,-0.065
2.382,-0.05
2.384,-0.03
2.386,-0.01
2.388,0.005
2.39,0.01
2.392,0.015
2.394,0.01
2.396,0
2.398,-0.01
2.4,-0.02
2.402,-0.03
2.404,-0.035
2.406,-0.04
2.408,-0.03
2.41,-0.02
2.412,-0.005
2.414,0.01
2.416,0.03
2.418,0.04
2.42,0.05
2.422,0.05
2.424,0.045
2.426,0.035
2.428,0.025
2.43,0.015
2.432,0.005
2.434,0
2.436,0
2.438,0.005
2.44,0.005
2.442,0.01
2.444,0.005
2.446,-0.005
2.448,-0.025
2.45,-0.04
2.452,-0.06
2.454,-0.075
2.456,-0.085
2.458,-0.09
2.46,-0.08
2.462,-0.07
2.464,-0.06
2.466,-0.05
2.468,-0.04
2.47,-0.04
2.472,-0.045
2.474,-0.055
2.476,-0.065
2.478,-0.07
2.48,-0.07
2.482,-0.065
2.484,-0.06
2.486,-0.045
2.488,-0.04
2.49,-0.035
2.492,-0.04
2.494,-0.045
2.496,-0.06
2.498,-0.075
2.5,-0.09
2.502,-0.1
2.504,-0.1
2.506,-0.095
2.508,-0.085
2.51,-0.075
2.512,-0.07
2.514,-0.065
2.516,-0.07
2.518,-0.075
2.52,-0.085
2.522,-0.095
2.524,-0.105
2.526,-0.105
2.528,-0.1
2.53,-0.09
2.532,-0.08
2.534,-0.065
2.536,-0.055
2.538,-0.045
2.54,-0.04
2.542,-0.03
2.544,-0.015
2.546,0
2.548,0.03
2.55,0.075
2.552,0.125
2.554,0.19
2.556,0.255
2.558,0.32
2.56,0.375
2.562,0.41
2.564,0.425
2.566,0.415
2.568,0.375
2.57,0.31
2.572,0.23
2.574,0.135
2.576,0.04
2.578,-0.055
2.58,-0.135
2.582,-0.2
2.584,-0.25
2.586,-0.285
2.588,-0.3
2.59,-0.305
2.592,-0.305
2.594,-0.3
2.596,-0.295
2.598,-0.285
2.6,-0.275
2.602,-0.255
2.604,-0.235
2.606,-0.205
2.608,-0.175
2.61,-0.145
2.612,-0.115
2.614,-0.095
2.616,-0.075
2.618,-0.07
2.62,-0.07
2.622,-0.075
2.624,-0.085
2.626,-0.09
2.628,-0.095
2.63,-0.09
2.632,-0.085
2.634,-0.08
2.636,-0.07
2.638,-0.065
2.64,-0.06
2.642,-0.06
2.644,-0.06
2.646,-0.06
2.648,-0.06
2.65,-0.06
2.652,-0.065
2.654,-0.065
2.656,-0.065
2.658,-0.065
2.66,-0.065
2.662,-0.06
2.664,-0.06
2.666,-0.055
2.668,-0.05
2.67,-0.04
2.672,-0.035
2.674,-0.025
2.676,-0.02
2.678,-0.02
2.68,-0.02
2.682,-0.025
2.684,-0.03
2.686,-0.035
2.688,-0.035
2.69,-0.035
2.692,-0.03
2.694,-0.025
2.696,-0.02
2.698,-0.015
2.7,-0.015
2.702,-0.015
2.704,-0.015
2.706,-0.02
2.708,-0.015
2.71,-0.015
2.712,-0.01
2.714,0
2.716,0.005
2.718,0.01
2.72,0.02
2.722,0.02
2.724,0.025
2.726,0.025
2.728,0.03
2.73,0.035
2.732,0.04
2.734,0.05
2.736,0.06
2.738,0.07
2.74,0.08
2.742,0.09
2.744,0.1
2.746,0.11
2.748,0.12
2.75,0.135
2.752,0.15
2.754,0.16
2.756,0.175
2.758,0.185
2.76,0.2
2.762,0.21
2.764,0.215
2.766,0.225
2.768,0.235
2.77,0.25
2.772,0.27
2.774,0.29
2.776,0.31
2.778,0.335
2.78,0.36
2.782,0.38
2.784,0.4
2.786,0.41
2.788,0.42
2.79,0.425
2.792,0.42
2.794,0.415
2.796,0.405
2.798,0.4
2.8,0.39
2.802,0.38
2.804,0.38
2.806,0.38
2.808,0.385
2.81,0.39
2.812,0.39
2.814,0.39
2.816,0.385
2.818,0.375
2.82,0.355
2.822,0.33
2.824,0.305
2.826,0.275
2.828,0.255
2.83,0.24
2.832,0.23
2.834,0.225
2.836,0.22
2.838,0.22
2.84,0.215
2.842,0.21
2.844,0.195
2.846,0.18
2.848,0.155
2.85,0.135
2.852,0.11
2.854,0.09
2.856,0.075
2.858,0.06
2.86,0.05
2.862,0.045
2.864,0.045
2.866,0.04
2.868,0.035
2.87,0.03
2.872,0.025
2.874,0.02
2.876,0.01
2.878,0.005
2.88,-0.005
2.882,-0.01
2.884,-0.015
2.886,-0.02
2.888,-0.025
2.89,-0.03
2.892,-0.03
2.894,-0.035
2.896,-0.04
2.898,-0.045
2.9,-0.05
2.902,-0.05
2.904,-0.055
2.906,-0.055
2.908,-0.055
2.91,-0.05
2.912,-0.05
2.914,-0.045
2.916,-0.04
2.918,-0.035
2.92,-0.03
2.922,-0.02
2.924,-0.01
2.926,-0.005
2.928,0.005
2.93,0.01
2.932,0.01
2.934,0.005
2.936,-0.01
2.938,-0.02
2.94,-0.04
2.942,-0.055
2.944,-0.065
2.946,-0.07
2.948,-0.065
2.95,-0.055
2.952,-0.04
2.954,-0.025
2.956,-0.015
2.958,-0.01
2.96,-0.01
2.962,-0.015
2.964,-0.025
2.966,-0.04
2.968,-0.05
2.97,-0.06
2.972,-0.06
2.974,-0.055
2.976,-0.045
2.978,-0.035
2.98,-0.02
2.982,-0.015
2.984,-0.015
2.986,-0.02
2.988,-0.03
2.99,-0.04
2.992,-0.05
2.994,-0.055
2.996,-0.055
2.998,-0.045
3,-0.03
3.002,-0.01
3.004,0.005
3.006,0.02
3.008,0.025
3.01,0.02
3.012,0.005
3.014,-0.015
3.016,-0.035
3.018,-0.055
3.02,-0.07
3.022,-0.075
3.024,-0.07
3.026,-0.06
3.028,-0.045
3.03,-0.03
3.032,-0.02
3.034,-0.015
3.036,-0.02
3.038,-0.03
3.04,-0.045
3.042,-0.055
3.044,-0.06
3.046,-0.06
3.048,-0.055
3.05,-0.045
3.052,-0.035
3.054,-0.03
3.056,-0.03
3.058,-0.04
3.06,-0.055
3.062,-0.07
3.064,-0.085
3.066,-0.095
3.068,-0.09
3.07,-0.085
3.072,-0.07
3.074,-0.055
3.076,-0.04
3.078,-0.035
3.08,-0.035
3.082,-0.04
3.084,-0.045
3.086,-0.05
3.088,-0.055
3.09,-0.055
3.092,-0.05
3.094,-0.045
3.096,-0.035
3.098,-0.035
3.1,-0.035
3.102,-0.04
3.104,-0.045
3.106,-0.055
3.108,-0.065
3.11,-0.065
3.112,-0.065
3.114,-0.055
3.116,-0.045
3.118,-0.04
3.12,-0.03
3.122,-0.03
3.124,-0.03
3.126,-0.04
3.128,-0.05
3.13,-0.06
3.132,-0.075
3.134,-0.08
3.136,-0.085
3.138,-0.08
3.14,-0.075
3.142,-0.065
3.144,-0.055
3.146,-0.05
3.148,-0.04
3.15,-0.035
3.152,-0.035
3.154,-0.04
3.156,-0.045
3.158,-0.055
3.16,-0.065
3.162,-0.07
3.164,-0.075
3.166,-0.075
3.168,-0.07
3.17,-0.065
3.172,-0.055
3.174,-0.045
3.176,-0.045
3.178,-0.045
3.18,-0.05
3.182,-0.055
3.184,-0.065
3.186,-0.075
3.188,-0.075
3.19,-0.075
3.192,-0.065
3.194,-0.055
3.196,-0.04
3.198,-0.025
3.2,-0.015
3.202,-0.01
3.204,-0.015
3.206,-0.025
3.208,-0.045
3.21,-0.065
3.212,-0.08
3.214,-0.095
3.216,-0.1
3.218,-0.095
3.22,-0.085
3.222,-0.07
3.224,-0.055
3.226,-0.045
3.228,-0.035
3.23,-0.04
3.232,-0.05
3.234,-0.06
3.236,-0.075
3.238,-0.085
3.24,-0.09
3.242,-0.085
3.244,-0.07
3.246,-0.055
3.248,-0.045
3.25,-0.035
3.252,-0.035
3.254,-0.045
3.256,-0.065
3.258,-0.085
3.26,-0.1
3.262,-0.11
3.264,-0.11
3.266,-0.1
3.268,-0.085
3.27,-0.065
3.272,-0.045
3.274,-0.035
3.276,-0.03
3.278,-0.04
3.28,-0.05
3.282,-0.065
3.284,-0.075
3.286,-0.075
3.288,-0.07
3.29,-0.06
3.292,-0.05
3.294,-0.035
3.296,-0.03
3.298,-0.03
3.3,-0.035
3.302,-0.045
3.304,-0.055
3.306,-0.07
3.308,-0.075
3.31,-0.075
3.312,-0.065
3.314,-0.06
3.316,-0.05
3.318,-0.04
3.32,-0.035
3.322,-0.035
3.324,-0.04
3.326,-0.04
3.328,-0.045
3.33,-0.045
3.332,-0.04
3.334,-0.04
3.336,-0.035
3.338,-0.03
3.34,-0.025
3.342,-0.025
3.344,-0.02
3.346,-0.015
3.348,-0.01
3.35,0
3.352,0.015
3.354,0.025
3.356,0.035
3.358,0.045
3.36,0.045
3.362,0.045
3.364,0.04
3.366,0.03
3.368,0.025
3.37,0.015
3.372,0.005
3.374,-0.005
3.376,-0.015
3.378,-0.025
3.38,-0.03
3.382,-0.04
3.384,-0.05
3.386,-0.06
3.388,-0.065
3.39,-0.07
3.392,-0.075
3.394,-0.075
3.396,-0.075
3.398,-0.08
3.4,-0.085
3.402,-0.09
3.404,-0.095
3.406,-0.1
3.408,-0.1
3.41,-0.105
3.412,-0.1
3.414,-0.095
3.416,-0.09
3.418,-0.085
3.42,-0.08
3.422,-0.075
3.424,-0.075
3.426,-0.075
3.428,-0.08
3.43,-0.08
3.432,-0.085
3.434,-0.085
3.436,-0.09
3.438,-0.09
3.44,-0.09
3.442,-0.09
3.444,-0.085
3.446,-0.085
3.448,-0.08
3.45,-0.075
3.452,-0.07
3.454,-0.065
3.456,-0.06
3.458,-0.055
3.46,-0.055
3.462,-0.06
3.464,-0.065
3.466,-0.07
3.468,-0.07
3.47,-0.07
3.472,-0.055
3.474,-0.03
3.476,0.01
3.478,0.07
3.48,0.145
3.482,0.225
3.484,0.31
3.486,0.385
3.488,0.44
3.49,0.465
3.492,0.46
3.494,0.415
3.496,0.34
3.498,0.235
3.5,0.115
3.502,-0.005
3.504,-0.115
3.506,-0.205
3.508,-0.265
3.51,-0.3
3.512,-0.31
3.514,-0.3
3.516,-0.28
3.518,-0.26
3.52,-0.245
3.522,-0.235
3.524,-0.235
3.526,-0.24
3.528,-0.24
3.53,-0.24
3.532,-0.225
3.534,-0.205
3.536,-0.175
3.538,-0.145
3.54,-0.115
3.542,-0.095
3.544,-0.08
3.546,-0.08
3.548,-0.085
3.55,-0.095
3.552,-0.105
3.554,-0.115
3.556,-0.11
3.558,-0.1
3.56,-0.085
3.562,-0.065
3.564,-0.045
3.566,-0.03
3.568,-0.02
3.57,-0.015
3.572,-0.02
3.574,-0.03
3.576,-0.04
3.578,-0.05
3.58,-0.06
3.582,-0.065
3.584,-0.065
3.586,-0.06
3.588,-0.055
3.59,-0.05
3.592,-0.045
3.594,-0.04
3.596,-0.035
3.598,-0.035
3.6,-0.035
3.602,-0.035
3.604,-0.035
3.606,-0.035
3.608,-0.035
3.61,-0.035
3.612,-0.035
3.614,-0.035
3.616,-0.035
3.618,-0.035
3.62,-0.03
3.622,-0.03
3.624,-0.03
3.626,-0.03
3.628,-0.025
3.63,-0.025
3.632,-0.02
3.634,-0.01
3.636,-0.005
3.638,0.01
3.64,0.02
3.642,0.03
3.644,0.035
3.646,0.04
3.648,0.035
3.65,0.03
3.652,0.025
3.654,0.025
3.656,0.025
3.658,0.03
3.66,0.035
3.662,0.05
3.664,0.065
3.666,0.08
3.668,0.095
3.67,0.11
3.672,0.12
3.674,0.125
3.676,0.135
3.678,0.14
3.68,0.15
3.682,0.165
3.684,0.175
3.686,0.19
3.688,0.205
3.69,0.215
3.692,0.23
3.694,0.245
3.696,0.265
3.698,0.28
3.7,0.3
3.702,0.32
3.704,0.34
3.706,0.36
3.708,0.37
3.71,0.38
3.712,0.38
3.714,0.385
3.716,0.385
3.718,0.385
3.72,0.385
3.722,0.39
3.724,0.4
3.726,0.405
3.728,0.41
3.73,0.41
3.732,0.405
3.734,0.395
3.736,0.385
3.738,0.37
3.74,0.36
3.742,0.35
3.744,0.35
3.746,0.35
3.748,0.35
3.75,0.35
3.752,0.34
3.754,0.33
3.756,0.31
3.758,0.28
3.76,0.25
3.762,0.215
3.764,0.19
3.766,0.165
3.768,0.155
3.77,0.15
3.772,0.15
3.774,0.15
3.776,0.15
3.778,0.145
3.78,0.135
3.782,0.115
3.784,0.095
3.786,0.065
3.788,0.04
3.79,0.015
3.792,0
3.794,-0.01
3.796,-0.015
3.798,-0.015
3.8,-0.01
3.802,-0.005
3.804,-0.005
3.806,-0.005
3.808,-0.005
3.81,-0.005
3.812,-0.005
3.814,-0.005
3.816,-0.01
3.818,-0.01
3.82,-0.01
3.822,-0.015
3.824,-0.02
3.826,-0.025
3.828,-0.035
3.83,-0.045
3.832,-0.05
3.834,-0.055
3.836,-0.055
3.838,-0.05
3.84,-0.04
3.842,-0.035
3.844,-0.025
3.846,-0.025
3.848,-0.025
3.85,-0.03
3.852,-0.04
3.854,-0.045
3.856,-0.045
3.858,-0.045
3.86,-0.04
3.862,-0.03
3.864,-0.02
3.866,-0.015
3.868,-0.01
3.87,-0.015
3.872,-0.025
3.874,-0.035
3.876,-0.05
3.878,-0.055
3.88,-0.06
3.882,-0.06
3.884,-0.05
3.886,-0.035
3.888,-0.025
3.89,-0.01
3.892,0
3.894,0.005
3.896,0.005
3.898,0
3.9,-0.01
3.902,-0.015
3.904,-0.02
3.906,-0.025
3.908,-0.03
3.91,-0.03
3.912,-0.03
3.914,-0.025
3.916,-0.025
3.918,-0.025
3.92,-0.025
3.922,-0.025
3.924,-0.025
3.926,-0.025
3.928,-0.025
3.93,-0.025
3.932,-0.025
3.934,-0.025
3.936,-0.025
3.938,-0.025
3.94,-0.025
3.942,-0.03
3.944,-0.035
3.946,-0.045
3.948,-0.055
3.95,-0.06
3.952,-0.07
3.954,-0.07
3.956,-0.065
3.958,-0.06
3.96,-0.045
3.962,-0.035
3.964,-0.025
3.966,-0.02
3.968,-0.02
3.97,-0.03
3.972,-0.04
3.974,-0.05
3.976,-0.06
3.978,-0.07
3.98,-0.07
3.982,-0.07
3.984,-0.06
3.986,-0.055
3.988,-0.05
3.99,-0.05
3.992,-0.055
3.994,-0.055
3.996,-0.06
3.998,-0.06
4,-0.06
4.002,-0.055
4.004,-0.05
4.006,-0.045
4.008,-0.04
4.01,-0.04
4.012,-0.045
4.014,-0.05
4.016,-0.065
4.018,-0.075
4.02,-0.085
4.022,-0.095
4.024,-0.095
4.026,-0.1
4.028,-0.095
4.03,-0.095
4.032,-0.095
4.034,-0.095
4.036,-0.095
4.038,-0.09
4.04,-0.085
4.042,-0.075
4.044,-0.06
4.046,-0.05
4.048,-0.035
4.05,-0.025
4.052,-0.02
4.054,-0.025
4.056,-0.03
4.058,-0.04
4.06,-0.055
4.062,-0.07
4.064,-0.08
4.066,-0.085
4.068,-0.09
4.07,-0.09
4.072,-0.09
4.074,-0.085
4.076,-0.085
4.078,-0.08
4.08,-0.075
4.082,-0.07
4.084,-0.065
4.086,-0.055
4.088,-0.045
4.09,-0.04
4.092,-0.035
4.094,-0.035
4.096,-0.04
4.098,-0.05
4.1,-0.06
4.102,-0.065
4.104,-0.075
4.106,-0.075
4.108,-0.075
4.11,-0.065
4.112,-0.055
4.114,-0.05
4.116,-0.045
4.118,-0.04
4.12,-0.045
4.122,-0.05
4.124,-0.06
4.126,-0.07
4.128,-0.07
4.13,-0.07
4.132,-0.07
4.134,-0.06
4.136,-0.055
4.138,-0.045
4.14,-0.04
4.142,-0.04
4.144,-0.04
4.146,-0.04
4.148,-0.035
4.15,-0.03
4.152,-0.02
4.154,-0.005
4.156,0.01
4.158,0.025
4.16,0.03
4.162,0.035
4.164,0.03
4.166,0.02
4.168,0.01
4.17,0
4.172,-0.005
4.174,-0.01
4.176,-0.005
4.178,0.005
4.18,0.015
4.182,0.025
4.184,0.035
4.186,0.035
4.188,0.03
4.19,0.02
4.192,0.01
4.194,0
4.196,-0.015
4.198,-0.02
4.2,-0.03
4.202,-0.035
4.204,-0.04
4.206,-0.05
4.208,-0.055
4.21,-0.065
4.212,-0.075
4.214,-0.08
4.216,-0.085
4.218,-0.09
4.22,-0.09
4.222,-0.085
4.224,-0.08
4.226,-0.075
4.228,-0.075
4.23,-0.075
4.232,-0.08
4.234,-0.08
4.236,-0.085
4.238,-0.085
4.24,-0.085
4.242,-0.085
4.244,-0.085
4.246,-0.085
4.248,-0.085
4.25,-0.09
4.252,-0.09
4.254,-0.095
4.256,-0.095
4.258,-0.095
4.26,-0.085
4.262,-0.08
4.264,-0.065
4.266,-0.06
4.268,-0.055
4.27,-0.055
4.272,-0.06
4.274,-0.075
4.276,-0.09
4.278,-0.11
4.28,-0.125
4.282,-0.135
4.284,-0.135
4.286,-0.13
4.288,-0.12
4.29,-0.1
4.292,-0.085
4.294,-0.065
4.296,-0.045
4.298,-0.025
4.3,0
4.302,0.035
4.304,0.075
4.306,0.13
4.308,0.19
4.31,0.255
4.312,0.315
4.314,0.37
4.316,0.405
4.318,0.42
4.32,0.41
4.322,0.365
4.324,0.3
4.326,0.22
4.328,0.125
4.33,0.03
4.332,-0.06
4.334,-0.14
4.336,-0.205
4.338,-0.255
4.34,-0.29
4.342,-0.315
4.344,-0.33
4.346,-0.34
4.348,-0.34
4.35,-0.34
4.352,-0.33
4.354,-0.315
4.356,-0.295
4.358,-0.265
4.36,-0.235
4.362,-0.2
4.364,-0.175
4.366,-0.15
4.368,-0.135
4.37,-0.13
4.372,-0.13
4.374,-0.13
4.376,-0.135
4.378,-0.135
4.38,-0.13
4.382,-0.12
4.384,-0.11
4.386,-0.095
4.388,-0.085
4.39,-0.075
4.392,-0.07
4.394,-0.065
4.396,-0.065
4.398,-0.06
4.4,-0.06
4.402,-0.055
4.404,-0.05
4.406,-0.045
4.408,-0.04
4.41,-0.04
4.412,-0.04
4.414,-0.045
4.416,-0.05
4.418,-0.05
4.42,-0.055
4.422,-0.055
4.424,-0.055
4.426,-0.055
4.428,-0.05
4.43,-0.045
4.432,-0.04
4.434,-0.035
4.436,-0.03
4.438,-0.025
4.44,-0.025
4.442,-0.03
4.444,-0.035
4.446,-0.04
4.448,-0.045
4.45,-0.05
4.452,-0.055
4.454,-0.055
4.456,-0.055
4.458,-0.045
4.46,-0.035
4.462,-0.02
4.464,-0.005
4.466,0.01
4.468,0.025
4.47,0.035
4.472,0.045
4.474,0.05
4.476,0.05
4.478,0.05
4.48,0.05
4.482,0.045
4.484,0.045
4.486,0.035
4.488,0.03
4.49,0.03
4.492,0.03
4.494,0.04
4.496,0.055
4.498,0.075
4.5,0.1
4.502,0.13
4.504,0.16
4.506,0.185
4.508,0.205
4.51,0.215
4.512,0.22
4.514,0.215
4.516,0.21
4.518,0.21
4.52,0.21
4.522,0.22
4.524,0.235
4.526,0.26
4.528,0.285
4.53,0.31
4.532,0.335
4.534,0.35
4.536,0.36
4.538,0.36
4.54,0.355
4.542,0.35
4.544,0.34
4.546,0.33
4.548,0.325
4.55,0.325
4.552,0.32
4.554,0.325
4.556,0.325
4.558,0.325
4.56,0.325
4.562,0.325
4.564,0.32
4.566,0.315
4.568,0.31
4.57,0.305
4.572,0.3
4.574,0.295
4.576,0.285
4.578,0.275
4.58,0.265
4.582,0.25
4.584,0.23
4.586,0.21
4.588,0.19
4.59,0.165
4.592,0.15
4.594,0.135
4.596,0.125
4.598,0.115
4.6,0.11
4.602,0.1
4.604,0.09
4.606,0.075
4.608,0.055
4.61,0.03
4.612,0.01
4.614,-0.005
4.616,-0.015
4.618,-0.015
4.62,-0.01
4.622,0.005
4.624,0.02
4.626,0.035
4.628,0.04
4.63,0.04
4.632,0.03
4.634,0.01
4.636,-0.01
4.638,-0.035
4.64,-0.06
4.642,-0.08
4.644,-0.09
4.646,-0.095
4.648,-0.095
4.65,-0.09
4.652,-0.08
4.654,-0.075
4.656,-0.065
4.658,-0.06
4.66,-0.055
4.662,-0.05
4.664,-0.05
4.666,-0.045
4.668,-0.045
4.67,-0.045
4.672,-0.05
4.674,-0.05
4.676,-0.055
4.678,-0.055
4.68,-0.06
4.682,-0.06
4.684,-0.055
4.686,-0.05
4.688,-0.04
4.69,-0.03
4.692,-0.02
4.694,-0.015
4.696,-0.01
4.698,-0.01
4.7,-0.01
4.702,-0.015
4.704,-0.02
4.706,-0.02
4.708,-0.025
4.71,-0.02
4.712,-0.015
4.714,-0.01
4.716,-0.005
4.718,0
4.72,0
4.722,0
4.724,-0.01
4.726,-0.02
4.728,-0.03
4.73,-0.04
4.732,-0.045
4.734,-0.045
4.736,-0.04
4.738,-0.035
4.74,-0.025
4.742,-0.02
4.744,-0.02
4.746,-0.025
4.748,-0.03
4.75,-0.04
4.752,-0.05
4.754,-0.06
4.756,-0.065
4.758,-0.07
4.76,-0.065
4.762,-0.06
4.764,-0.05
4.766,-0.035
4.768,-0.025
4.77,-0.015
4.772,-0.005
4.774,0
4.776,0
4.778,-0.005
4.78,-0.015
4.782,-0.025
4.784,-0.04
4.786,-0.055
4.788,-0.07
4.79,-0.08
4.792,-0.085
4.794,-0.085
4.796,-0.08
4.798,-0.07
4.8,-0.06
4.802,-0.05
4.804,-0.045
4.806,-0.04
4.808,-0.04
4.81,-0.045
4.812,-0.045
4.814,-0.05
4.816,-0.055
4.818,-0.06
4.82,-0.06
4.822,-0.06
4.824,-0.06
4.826,-0.055
4.828,-0.05
4.83,-0.04
4.832,-0.035
4.834,-0.025
4.836,-0.02
4.838,-0.02
4.84,-0.02
4.842,-0.025
4.844,-0.035
4.846,-0.045
4.848,-0.05
4.85,-0.055
4.852,-0.055
4.854,-0.055
4.856,-0.045
4.858,-0.04
4.86,-0.035
4.862,-0.035
4.864,-0.04
4.866,-0.05
4.868,-0.07
4.87,-0.085
4.872,-0.1
4.874,-0.105
4.876,-0.105
4.878,-0.095
4.88,-0.075
4.882,-0.055
4.884,-0.03
4.886,-0.01
4.888,0.005
4.89,0.01
4.892,0.01
4.894,0.005
4.896,0
4.898,-0.01
4.9,-0.015
4.902,-0.015
4.904,-0.015
4.906,-0.01
4.908,-0.005
4.91,0
4.912,0
4.914,0.005
4.916,0
4.918,-0.005
4.92,-0.01
4.922,-0.015
4.924,-0.02
4.926,-0.02
4.928,-0.02
4.93,-0.02
4.932,-0.02
4.934,-0.025
4.936,-0.025
4.938,-0.035
4.94,-0.045
4.942,-0.06
4.944,-0.075
4.946,-0.09
4.948,-0.095
4.95,-0.095
4.952,-0.09
4.954,-0.075
4.956,-0.06
4.958,-0.04
4.96,-0.025
4.962,-0.015
4.964,-0.015
4.966,-0.02
4.968,-0.03
4.97,-0.04
4.972,-0.055
4.974,-0.06
4.976,-0.065
4.978,-0.065
4.98,-0.06
4.982,-0.06
4.984,-0.055
4.986,-0.055
4.988,-0.055
4.99,-0.06
4.992,-0.065
4.994,-0.065
4.996,-0.065
4.998,-0.065
5,-0.065
5.002,-0.06
5.004,-0.055
5.006,-0.055
5.008,-0.055
5.01,-0.06
5.012,-0.06
5.014,-0.065
5.016,-0.065
5.018,-0.06
5.02,-0.055
5.022,-0.045
5.024,-0.035
5.026,-0.025
5.028,-0.015
5.03,-0.01
5.032,0
5.034,0.01
5.036,0.025
5.038,0.045
5.04,0.075
5.042,0.11
5.044,0.15
5.046,0.195
5.048,0.235
5.05,0.27
5.052,0.29
5.054,0.29
5.056,0.27
5.058,0.23
5.06,0.165
5.062,0.09
5.064,0.01
5.066,-0.07
5.068,-0.14
5.07,-0.195
5.072,-0.23
5.074,-0.245
5.076,-0.245
5.078,-0.24
5.08,-0.23
5.082,-0.225
5.084,-0.23
5.086,-0.24
5.088,-0.26
5.09,-0.28
5.092,-0.29
5.094,-0.285
5.096,-0.265
5.098,-0.23
5.1,-0.18
5.102,-0.13
5.104,-0.08
5.106,-0.045
5.108,-0.025
5.11,-0.02
5.112,-0.03
5.114,-0.05
5.116,-0.07
5.118,-0.085
5.12,-0.095
5.122,-0.09
5.124,-0.075
5.126,-0.06
5.128,-0.04
5.13,-0.02
5.132,-0.01
5.134,-0.005
5.136,-0.01
5.138,-0.015
5.14,-0.02
5.142,-0.03
5.144,-0.035
5.146,-0.035
5.148,-0.04
5.15,-0.035
5.152,-0.035
5.154,-0.03
5.156,-0.025
5.158,-0.02
5.16,-0.02
5.162,-0.025
5.164,-0.03
5.166,-0.035
5.168,-0.045
5.17,-0.055
5.172,-0.065
5.174,-0.065
5.176,-0.06
5.178,-0.05
5.18,-0.03
5.182,-0.015
5.184,0.005
5.186,0.015
5.188,0.02
5.19,0.02
5.192,0.01
5.194,0
5.196,-0.01
5.198,-0.015
5.2,-0.015
5.202,-0.01
5.204,-0.005
5.206,0.005
5.208,0.01
5.21,0.01
5.212,0.01
5.214,0
5.216,-0.005
5.218,-0.01
5.22,-0.005
5.222,0.01
5.224,0.035
5.226,0.065
5.228,0.095
5.23,0.125
5.232,0.14
5.234,0.15
5.236,0.15
5.238,0.135
5.24,0.12
5.242,0.105
5.244,0.09
5.246,0.09
5.248,0.1
5.25,0.12
5.252,0.145
5.254,0.175
5.256,0.2
5.258,0.22
5.26,0.24
5.262,0.25
5.264,0.26
5.266,0.265
5.268,0.27
5.27,0.275
5.272,0.28
5.274,0.285
5.276,0.29
5.278,0.29
5.28,0.29
5.282,0.285
5.284,0.285
5.286,0.28
5.288,0.28
5.29,0.28
5.292,0.28
5.294,0.28
5.296,0.28
5.298,0.28
5.3,0.27
5.302,0.255
5.304,0.24
5.306,0.22
5.308,0.2
5.31,0.18
5.312,0.16
5.314,0.15
5.316,0.135
5.318,0.125
5.32,0.115
5.322,0.105
5.324,0.095
5.326,0.09
5.328,0.085
5.33,0.08
5.332,0.08
5.334,0.08
5.336,0.08
5.338,0.075
5.34,0.065
5.342,0.055
5.344,0.035
5.346,0.02
5.348,0.005
5.35,-0.005
5.352,-0.01
5.354,-0.005
5.356,0.005
5.358,0.015
5.36,0.025
5.362,0.03
5.364,0.02
5.366,0.005
5.368,-0.015
5.37,-0.04
5.372,-0.06
5.374,-0.075
5.376,-0.08
5.378,-0.08
5.38,-0.065
5.382,-0.045
5.384,-0.025
5.386,-0.005
5.388,0.01
5.39,0.015
5.392,0.015
5.394,0.015
5.396,0.005
5.398,0
5.4,-0.01
5.402,-0.015
5.404,-0.02
5.406,-0.025
5.408,-0.03
5.41,-0.035
5.412,-0.045
5.414,-0.05
5.416,-0.055
5.418,-0.055
5.42,-0.055
5.422,-0.045
5.424,-0.035
5.426,-0.02
5.428,-0.01
5.43,0
5.432,0.005
5.434,0
5.436,-0.01
5.438,-0.02
5.44,-0.035
5.442,-0.045
5.444,-0.05
5.446,-0.045
5.448,-0.035
5.45,-0.015
5.452,0.005
5.454,0.02
5.456,0.035
5.458,0.04
5.46,0.04
5.462,0.03
5.464,0.015
5.466,0.005
5.468,-0.005
5.47,-0.015
5.472,-0.02
5.474,-0.025
5.476,-0.025
5.478,-0.03
5.48,-0.04
5.482,-0.045
5.484,-0.055
5.486,-0.055
5.488,-0.055
5.49,-0.045
5.492,-0.03
5.494,-0.015
5.496,0
5.498,0.01
5.5,0.015
5.502,0.01
5.504,-0.005
5.506,-0.02
5.508,-0.03
5.51,-0.035
5.512,-0.035
5.514,-0.025
5.516,-0.01
5.518,0.01
5.52,0.02
5.522,0.025
5.524,0.02
5.526,0.005
5.528,-0.015
5.53,-0.04
5.532,-0.06
5.534,-0.075
5.536,-0.08
5.538,-0.075
5.54,-0.07
5.542,-0.055
5.544,-0.045
5.546,-0.04
5.548,-0.04
5.55,-0.045
5.552,-0.05
5.554,-0.06
5.556,-0.065
5.558,-0.065
5.56,-0.065
5.562,-0.06
5.564,-0.055
5.566,-0.055
5.568,-0.06
5.57,-0.065
5.572,-0.075
5.574,-0.08
5.576,-0.09
5.578,-0.09
5.58,-0.085
5.582,-0.08
5.584,-0.065
5.586,-0.05
5.588,-0.035
5.59,-0.02
5.592,-0.015
5.594,-0.02
5.596,-0.025
5.598,-0.04
5.6,-0.055
5.602,-0.075
5.604,-0.09
5.606,-0.1
5.608,-0.105
5.61,-0.1
5.612,-0.09
5.614,-0.075
5.616,-0.055
5.618,-0.035
5.62,-0.02
5.622,-0.01
5.624,-0.01
5.626,-0.015
5.628,-0.03
5.63,-0.045
5.632,-0.06
5.634,-0.065
5.636,-0.07
5.638,-0.065
5.64,-0.055
5.642,-0.04
5.644,-0.03
5.646,-0.02
5.648,-0.02
5.65,-0.03
5.652,-0.04
5.654,-0.06
5.656,-0.075
5.658,-0.085
5.66,-0.09
5.662,-0.085
5.664,-0.07
5.666,-0.06
5.668,-0.045
5.67,-0.035
5.672,-0.035
5.674,-0.045
5.676,-0.055
5.678,-0.075
5.68,-0.09
5.682,-0.105
5.684,-0.115
5.686,-0.115
5.688,-0.11
5.69,-0.105
5.692,-0.1
5.694,-0.095
5.696,-0.09
5.698,-0.085
5.7,-0.085
5.702,-0.08
5.704,-0.075
5.706,-0.075
5.708,-0.07
5.71,-0.065
5.712,-0.065
5.714,-0.065
5.716,-0.07
5.718,-0.075
5.72,-0.075
5.722,-0.075
5.724,-0.065
5.726,-0.055
5.728,-0.04
5.73,-0.025
5.732,-0.015
5.734,-0.015
5.736,-0.025
5.738,-0.04
5.74,-0.06
5.742,-0.075
5.744,-0.09
5.746,-0.09
5.748,-0.08
5.75,-0.065
5.752,-0.04
5.754,-0.02
5.756,-0.005
5.758,0
5.76,0
5.762,-0.005
5.764,-0.01
5.766,-0.005
5.768,0.01
5.77,0.045
5.772,0.095
5.774,0.15
5.776,0.215
5.778,0.27
5.78,0.31
5.782,0.325
5.784,0.32
5.786,0.28
5.788,0.225
5.79,0.15
5.792,0.065
5.794,-0.015
5.796,-0.095
5.798,-0.16
5.8,-0.21
5.802,-0.245
5.804,-0.27
5.806,-0.28
5.808,-0.285
5.81,-0.285
5.812,-0.28
5.814,-0.27
5.816,-0.26
5.818,-0.25
5.82,-0.235
5.822,-0.215
5.824,-0.195
5.826,-0.17
5.828,-0.15
5.83,-0.125
5.832,-0.105
5.834,-0.09
5.836,-0.08
5.838,-0.07
5.84,-0.065
5.842,-0.06
5.844,-0.06
5.846,-0.055
5.848,-0.055
5.85,-0.05
5.852,-0.05
5.854,-0.055
5.856,-0.055
5.858,-0.06
5.86,-0.065
5.862,-0.065
5.864,-0.065
5.866,-0.06
5.868,-0.05
5.87,-0.04
5.872,-0.035
5.874,-0.03
5.876,-0.04
5.878,-0.05
5.88,-0.065
5.882,-0.08
5.884,-0.09
5.886,-0.09
5.888,-0.085
5.89,-0.07
5.892,-0.05
5.894,-0.03
5.896,-0.015
5.898,-0.005
5.9,-0.005
5.902,-0.015
5.904,-0.025
5.906,-0.035
5.908,-0.04
5.91,-0.035
5.912,-0.03
5.914,-0.015
5.916,0
5.918,0.01
5.92,0.02
5.922,0.015
5.924,0.01
5.926,0.005
5.928,-0.005
5.93,-0.01
5.932,-0.005
5.934,-0.005
5.936,0
5.938,0.005
5.94,0.005
5.942,0.005
5.944,0
5.946,-0.005
5.948,-0.005
5.95,0
5.952,0.01
5.954,0.03
5.956,0.055
5.958,0.08
5.96,0.1
5.962,0.11
5.964,0.115
5.966,0.11
5.968,0.105
5.97,0.1
5.972,0.095
5.974,0.1
5.976,0.11
5.978,0.125
5.98,0.145
5.982,0.165
5.984,0.185
5.986,0.2
5.988,0.215
5.99,0.225
5.992,0.24
5.994,0.255
5.996,0.27
5.998,0.285
6,0.305
6.002,0.32
6.004,0.325
6.006,0.33
6.008,0.325
6.01,0.315
6.012,0.3
6.014,0.29
6.016,0.285
6.018,0.285
6.02,0.295
6.022,0.31
6.024,0.325
6.026,0.34
6.028,0.35
6.03,0.345
6.032,0.335
6.034,0.31
6.036,0.275
6.038,0.24
6.04,0.21
6.042,0.185
6.044,0.165
6.046,0.16
6.048,0.155
6.05,0.155
6.052,0.15
6.054,0.14
6.056,0.125
6.058,0.105
6.06,0.085
6.062,0.065
6.064,0.045
6.066,0.03
6.068,0.02
6.07,0.015
6.072,0.01
6.074,0.01
6.076,0
6.078,-0.01
6.08,-0.025
6.082,-0.035
6.084,-0.045
6.086,-0.05
6.088,-0.05
6.09,-0.04
6.092,-0.03
6.094,-0.015
6.096,-0.005
6.098,0.005
6.1,0.01
6.102,0.005
6.104,0
6.106,-0.01
6.108,-0.02
6.11,-0.03
6.112,-0.035
6.114,-0.04
6.116,-0.045
6.118,-0.045
6.12,-0.045
6.122,-0.045
6.124,-0.045
6.126,-0.045
6.128,-0.05
6.13,-0.05
6.132,-0.055
6.134,-0.055
6.136,-0.05
6.138,-0.05
6.14,-0.045
6.142,-0.035
6.144,-0.03
6.146,-0.025
6.148,-0.025
6.15,-0.02
6.152,-0.02
6.154,-0.025
6.156,-0.025
6.158,-0.025
6.16,-0.02
6.162,-0.015
6.164,-0.015
6.166,-0.01
6.168,-0.01
6.17,-0.01
6.172,-0.015
6.174,-0.025
6.176,-0.03
6.178,-0.03
6.18,-0.03
6.182,-0.025
6.184,-0.015
6.186,-0.01
6.188,-0.005
6.19,-0.005
6.192,-0.01
6.194,-0.025
6.196,-0.04
6.198,-0.06
6.2,-0.07
6.202,-0.075
6.204,-0.065
6.206,-0.055
6.208,-0.035
6.21,-0.02
6.212,-0.01
6.214,-0.005
6.216,-0.01
6.218,-0.02
6.22,-0.035
6.222,-0.04
6.224,-0.04
6.226,-0.035
6.228,-0.015
6.23,0.01
6.232,0.03
6.234,0.05
6.236,0.055
6.238,0.05
6.24,0.03
6.242,0.005
6.244,-0.02
6.246,-0.045
6.248,-0.06
6.25,-0.06
6.252,-0.055
6.254,-0.045
6.256,-0.035
6.258,-0.03
6.26,-0.03
6.262,-0.04
6.264,-0.05
6.266,-0.07
6.268,-0.085
6.27,-0.095
6.272,-0.095
6.274,-0.085
6.276,-0.075
6.278,-0.055
6.28,-0.04
6.282,-0.025
6.284,-0.015
6.286,-0.01
6.288,-0.01
6.29,-0.01
6.292,-0.015
6.294,-0.015
6.296,-0.015
6.298,-0.015
6.3,-0.015
6.302,-0.015
6.304,-0.015
6.306,-0.02
6.308,-0.025
6.31,-0.03
6.312,-0.04
6.314,-0.045
6.316,-0.045
6.318,-0.045
6.32,-0.045
6.322,-0.04
6.324,-0.035
6.326,-0.035
6.328,-0.04
6.33,-0.04
6.332,-0.045
6.334,-0.05
6.336,-0.05
6.338,-0.045
6.34,-0.035
6.342,-0.03
6.344,-0.015
6.346,-0.01
6.348,-0.005
6.35,-0.01
6.352,-0.02
6.354,-0.03
6.356,-0.05
6.358,-0.065
6.36,-0.075
6.362,-0.075
6.364,-0.07
6.366,-0.06
6.368,-0.045
6.37,-0.035
6.372,-0.025
6.374,-0.025
6.376,-0.03
6.378,-0.04
6.38,-0.055
6.382,-0.065
6.384,-0.075
6.386,-0.08
6.388,-0.075
6.39,-0.06
6.392,-0.05
6.394,-0.035
6.396,-0.025
6.398,-0.02
6.4,-0.025
6.402,-0.035
6.404,-0.045
6.406,-0.06
6.408,-0.075
6.41,-0.085
6.412,-0.09
6.414,-0.09
6.416,-0.09
6.418,-0.085
6.42,-0.08
6.422,-0.07
6.424,-0.065
6.426,-0.055
6.428,-0.05
6.43,-0.04
6.432,-0.035
6.434,-0.03
6.436,-0.025
6.438,-0.02
6.44,-0.02
6.442,-0.025
6.444,-0.03
6.446,-0.035
6.448,-0.045
6.45,-0.05
6.452,-0.055
6.454,-0.055
6.456,-0.05
6.458,-0.04
6.46,-0.03
6.462,-0.025
6.464,-0.015
6.466,-0.015
6.468,-0.025
6.47,-0.035
6.472,-0.055
6.474,-0.075
6.476,-0.09
6.478,-0.1
6.48,-0.1
6.482,-0.09
6.484,-0.075
6.486,-0.055
6.488,-0.035
6.49,-0.02
6.492,-0.02
6.494,-0.025
6.496,-0.045
6.498,-0.065
6.5,-0.09
6.502,-0.11
6.504,-0.115
6.506,-0.115
6.508,-0.1
6.51,-0.08
6.512,-0.055
6.514,-0.035
6.516,-0.015
6.518,0
6.52,0.005
6.522,0.005
6.524,-0.005
6.526,-0.015
6.528,-0.025
6.53,-0.04
6.532,-0.055
6.534,-0.065
6.536,-0.075
6.538,-0.08
6.54,-0.08
6.542,-0.08
6.544,-0.075
6.546,-0.065
6.548,-0.05
6.55,-0.03
6.552,-0.015
6.554,0
6.556,0.015
6.558,0.03
6.56,0.035
6.562,0.04
6.564,0.045
6.566,0.045
6.568,0.04
6.57,0.03
6.572,0.02
6.574,0.01
6.576,-0.005
6.578,-0.015
6.58,-0.025
6.582,-0.03
6.584,-0.03
6.586,-0.025
6.588,-0.015
6.59,0
6.592,0.02
6.594,0.035
6.596,0.045
6.598,0.045
6.6,0.04
6.602,0.025
6.604,0.005
6.606,-0.015
6.608,-0.04
6.61,-0.065
6.612,-0.085
6.614,-0.095
6.616,-0.105
6.618,-0.11
6.62,-0.11
6.622,-0.1
6.624,-0.09
6.626,-0.08
6.628,-0.065
6.63,-0.05
6.632,-0.04
6.634,-0.035
6.636,-0.03
6.638,-0.035
6.64,-0.045
6.642,-0.06
6.644,-0.07
6.646,-0.08
6.648,-0.08
6.65,-0.075
6.652,-0.065
6.654,-0.05
6.656,-0.035
6.658,-0.025
6.66,-0.02
6.662,-0.025
6.664,-0.035
6.666,-0.05
6.668,-0.06
6.67,-0.07
6.672,-0.075
6.674,-0.07
6.676,-0.06
6.678,-0.05
6.68,-0.035
6.682,-0.03
6.684,-0.035
6.686,-0.045
6.688,-0.06
6.69,-0.08
6.692,-0.095
6.694,-0.1
6.696,-0.09
6.698,-0.07
6.7,-0.035
6.702,0.005
6.704,0.055
6.706,0.1
6.708,0.145
6.71,0.19
6.712,0.23
6.714,0.27
6.716,0.305
6.718,0.335
6.72,0.36
6.722,0.37
6.724,0.36
6.726,0.325
6.728,0.27
6.73,0.19
6.732,0.1
6.734,0.005
6.736,-0.08
6.738,-0.15
6.74,-0.205
6.742,-0.23
6.744,-0.24
6.746,-0.23
6.748,-0.215
6.75,-0.2
6.752,-0.185
6.754,-0.175
6.756,-0.17
6.758,-0.17
6.76,-0.165
6.762,-0.155
6.764,-0.145
6.766,-0.125
6.768,-0.105
6.77,-0.085
6.772,-0.065
6.774,-0.05
6.776,-0.04
6.778,-0.035
6.78,-0.04
6.782,-0.045
6.784,-0.05
6.786,-0.06
6.788,-0.07
6.79,-0.075
6.792,-0.075
6.794,-0.07
6.796,-0.06
6.798,-0.045
6.8,-0.03
6.802,-0.01
6.804,0
6.806,0.005
6.808,0
6.81,-0.01
6.812,-0.025
6.814,-0.04
6.816,-0.05
6.818,-0.055
6.82,-0.05
6.822,-0.035
6.824,-0.02
6.826,0
6.828,0.01
6.83,0.01
6.832,0
6.834,-0.015
6.836,-0.04
6.838,-0.06
6.84,-0.075
6.842,-0.08
6.844,-0.07
6.846,-0.055
6.848,-0.03
6.85,-0.01
6.852,0
6.854,0.005
6.856,0
6.858,-0.01
6.86,-0.025
6.862,-0.035
6.864,-0.045
6.866,-0.04
6.868,-0.03
6.87,-0.015
6.872,0.005
6.874,0.02
6.876,0.03
6.878,0.035
6.88,0.035
6.882,0.03
6.884,0.025
6.886,0.025
6.888,0.03
6.89,0.04
6.892,0.05
6.894,0.065
6.896,0.075
6.898,0.085
6.9,0.095
6.902,0.105
6.904,0.115
6.906,0.125
6.908,0.14
6.91,0.155
6.912,0.17
6.914,0.18
6.916,0.19
6.918,0.195
6.92,0.195
6.922,0.195
6.924,0.19
6.926,0.19
6.928,0.19
6.93,0.205
6.932,0.225
6.934,0.25
6.936,0.28
6.938,0.31
6.94,0.335
6.942,0.35
6.944,0.355
6.946,0.35
6.948,0.34
6.95,0.325
6.952,0.315
6.954,0.31
6.956,0.31
6.958,0.315
6.96,0.33
6.962,0.35
6.964,0.36
6.966,0.37
6.968,0.37
6.97,0.36
6.972,0.345
6.974,0.33
6.976,0.315
6.978,0.305
6.98,0.3
6.982,0.3
6.984,0.305
6.986,0.3
6.988,0.295
6.99,0.275
6.992,0.25
6.994,0.215
6.996,0.175
6.998,0.135
7,0.1
7.002,0.08
7.004,0.065
7.006,0.06
7.008,0.065
7.01,0.065
7.012,0.07
7.014,0.07
7.016,0.065
7.018,0.055
7.02,0.045
7.022,0.035
7.024,0.025
7.026,0.025
7.028,0.025
7.03,0.025
7.032,0.025
7.034,0.025
7.036,0.025
7.038,0.02
7.04,0.01
7.042,0
7.044,-0.005
7.046,-0.01
7.048,-0.01
7.05,-0.01
7.052,-0.01
7.054,-0.01
7.056,-0.01
7.058,-0.01
7.06,-0.01
7.062,-0.01
7.064,-0.01
7.066,-0.01
7.068,-0.005
7.07,0.005
7.072,0.02
7.074,0.03
7.076,0.045
7.078,0.055
7.08,0.06
7.082,0.06
7.084,0.05
7.086,0.04
7.088,0.02
7.09,0
7.092,-0.015
7.094,-0.03
7.096,-0.04
7.098,-0.04
7.1,-0.035
7.102,-0.02
7.104,-0.005
7.106,0.015
7.108,0.025
7.11,0.035
7.112,0.035
7.114,0.03
7.116,0.015
7.118,0
7.12,-0.01
7.122,-0.02
7.124,-0.025
7.126,-0.025
7.128,-0.015
7.13,-0.01
7.132,0
7.134,0.005
7.136,0.005
7.138,0.005
7.14,0.005
7.142,0
7.144,-0.005
7.146,-0.005
7.148,0
7.15,0
7.152,0.005
7.154,0.005
7.156,0.01
7.158,0.005
7.16,0
7.162,-0.005
7.164,-0.01
7.166,-0.01
7.168,-0.015
7.17,-0.015
7.172,-0.015
7.174,-0.015
7.176,-0.015
7.178,-0.02
7.18,-0.02
7.182,-0.025
7.184,-0.03
7.186,-0.03
7.188,-0.03
7.19,-0.025
7.192,-0.02
7.194,-0.015
7.196,-0.015
7.198,-0.01
7.2,-0.015
7.202,-0.015
7.204,-0.015
7.206,-0.02
7.208,-0.02
7.21,-0.015
7.212,-0.01
7.214,-0.005
7.216,0
7.218,0.005
7.22,0.005
7.222,0.005
7.224,0
7.226,-0.01
7.228,-0.02
7.23,-0.025
7.232,-0.03
7.234,-0.035
7.236,-0.03
7.238,-0.025
7.24,-0.02
7.242,-0.015
7.244,-0.015
7.246,-0.02
7.248,-0.025
7.25,-0.04
7.252,-0.05
7.254,-0.06
7.256,-0.07
7.258,-0.07
7.26,-0.065
7.262,-0.06
7.264,-0.05
7.266,-0.035
7.268,-0.025
7.27,-0.015
7.272,-0.005
7.274,0
7.276,0
7.278,-0.005
7.28,-0.005
7.282,-0.01
7.284,-0.02
7.286,-0.025
7.288,-0.035
7.29,-0.04
7.292,-0.045
7.294,-0.05
7.296,-0.045
7.298,-0.045
7.3,-0.04
7.302,-0.03
7.304,-0.025
7.306,-0.02
7.308,-0.02
7.31,-0.02
7.312,-0.025
7.314,-0.03
7.316,-0.035
7.318,-0.04
7.32,-0.035
7.322,-0.03
7.324,-0.02
7.326,-0.01
7.328,0.005
7.33,0.01
7.332,0.015
7.334,0.015
7.336,0.01
7.338,-0.005
7.34,-0.02
7.342,-0.035
7.344,-0.055
7.346,-0.065
7.348,-0.075
7.35,-0.08
7.352,-0.08
7.354,-0.075
7.356,-0.065
7.358,-0.05
7.36,-0.04
7.362,-0.03
7.364,-0.02
7.366,-0.02
7.368,-0.02
7.37,-0.025
7.372,-0.03
7.374,-0.04
7.376,-0.04
7.378,-0.045
7.38,-0.045
7.382,-0.045
7.384,-0.04
7.386,-0.04
7.388,-0.04
7.39,-0.045
7.392,-0.05
7.394,-0.06
7.396,-0.07
7.398,-0.075
7.4,-0.085
7.402,-0.085
7.404,-0.085
7.406,-0.075
7.408,-0.065
7.41,-0.05
7.412,-0.03
7.414,-0.015
7.416,-0.005
7.418,0
7.42,0
7.422,-0.01
7.424,-0.025
7.426,-0.045
7.428,-0.07
7.43,-0.09
7.432,-0.105
7.434,-0.11
7.436,-0.105
7.438,-0.095
7.44,-0.08
7.442,-0.065
7.444,-0.05
7.446,-0.045
7.448,-0.04
7.45,-0.045
7.452,-0.05
7.454,-0.055
7.456,-0.06
7.458,-0.06
7.46,-0.06
7.462,-0.06
7.464,-0.055
7.466,-0.06
7.468,-0.07
7.47,-0.08
7.472,-0.095
7.474,-0.105
7.476,-0.115
7.478,-0.115
7.48,-0.11
7.482,-0.1
7.484,-0.085
7.486,-0.065
7.488,-0.05
7.49,-0.045
7.492,-0.04
7.494,-0.045
7.496,-0.055
7.498,-0.065
7.5,-0.075
7.502,-0.08
7.504,-0.085
7.506,-0.085
7.508,-0.085
7.51,-0.08
7.512,-0.08
7.514,-0.08
7.516,-0.085
7.518,-0.085
7.52,-0.085
7.522,-0.085
7.524,-0.085
7.526,-0.08
7.528,-0.075
7.53,-0.07
7.532,-0.065
7.534,-0.065
7.536,-0.065
7.538,-0.06
7.54,-0.06
7.542,-0.06
7.544,-0.06
7.546,-0.06
7.548,-0.06
7.55,-0.065
7.552,-0.065
7.554,-0.07
7.556,-0.07
7.558,-0.075
7.56,-0.075
7.562,-0.075
7.564,-0.075
7.566,-0.07
7.568,-0.065
7.57,-0.06
7.572,-0.055
7.574,-0.05
7.576,-0.045
7.578,-0.04
7.58,-0.04
7.582,-0.04
7.584,-0.045
7.586,-0.05
7.588,-0.06
7.59,-0.075
7.592,-0.09
7.594,-0.1
7.596,-0.11
7.598,-0.115
7.6,-0.115
7.602,-0.105
7.604,-0.095
7.606,-0.08
7.608,-0.065
7.61,-0.05
7.612,-0.035
7.614,-0.03
7.616,-0.025
7.618,-0.025
7.62,-0.03
7.622,-0.035
7.624,-0.045
7.626,-0.05
7.628,-0.055
7.63,-0.05
7.632,-0.045
7.634,-0.03
7.636,-0.01
7.638,0.015
7.64,0.035
7.642,0.055
7.644,0.07
7.646,0.075
7.648,0.07
7.65,0.055
7.652,0.04
7.654,0.02
7.656,0.005
7.658,-0.005
7.66,-0.01
7.662,-0.01
7.664,-0.005
7.666,0
7.668,0.005
7.67,0.005
7.672,0.005
7.674,-0.005
7.676,-0.015
7.678,-0.025
7.68,-0.035
7.682,-0.045
7.684,-0.045
7.686,-0.05
7.688,-0.045
7.69,-0.045
7.692,-0.045
7.694,-0.05
7.696,-0.055
7.698,-0.065
7.7,-0.075
7.702,-0.085
7.704,-0.095
7.706,-0.1
7.708,-0.1
7.71,-0.09
7.712,-0.08
7.714,-0.065
7.716,-0.045
7.718,-0.035
7.72,-0.025
7.722,-0.03
7.724,-0.04
7.726,-0.055
7.728,-0.075
7.73,-0.095
7.732,-0.11
7.734,-0.12
7.736,-0.12
7.738,-0.105
7.74,-0.085
7.742,-0.06
7.744,-0.04
7.746,-0.025
7.748,-0.02
7.75,-0.025
7.752,-0.04
7.754,-0.06
7.756,-0.085
7.758,-0.1
7.76,-0.115
7.762,-0.115
7.764,-0.105
7.766,-0.095
7.768,-0.08
7.77,-0.07
7.772,-0.065
7.774,-0.06
7.776,-0.065
7.778,-0.06
7.78,-0.055
7.782,-0.035
7.784,0
7.786,0.055
7.788,0.12
7.79,0.19
7.792,0.26
7.794,0.32
7.796,0.36
7.798,0.38
7.8,0.37
7.802,0.345
7.804,0.295
7.806,0.24
7.808,0.18
7.81,0.115
7.812,0.055
7.814,-0.005
7.816,-0.06
7.818,-0.11
7.82,-0.16
7.822,-0.205
7.824,-0.24
7.826,-0.27
7.828,-0.285
7.83,-0.285
7.832,-0.275
7.834,-0.25
7.836,-0.22
7.838,-0.185
7.84,-0.15
7.842,-0.125
7.844,-0.1
7.846,-0.09
7.848,-0.08
7.85,-0.075
7.852,-0.075
7.854,-0.075
7.856,-0.075
7.858,-0.075
7.86,-0.075
7.862,-0.075
7.864,-0.08
7.866,-0.08
7.868,-0.085
7.87,-0.085
7.872,-0.08
7.874,-0.075
7.876,-0.07
7.878,-0.065
7.88,-0.055
7.882,-0.05
7.884,-0.05
7.886,-0.045
7.888,-0.045
7.89,-0.045
7.892,-0.04
7.894,-0.04
7.896,-0.035
7.898,-0.035
7.9,-0.035
7.902,-0.04
7.904,-0.05
7.906,-0.06
7.908,-0.065
7.91,-0.07
7.912,-0.065
7.914,-0.055
7.916,-0.045
7.918,-0.03
7.92,-0.015
7.922,-0.005
7.924,0
7.926,-0.005
7.928,-0.015
7.93,-0.03
7.932,-0.04
7.934,-0.05
7.936,-0.055
7.938,-0.045
7.94,-0.035
7.942,-0.015
7.944,0.005
7.946,0.02
7.948,0.035
7.95,0.04
7.952,0.04
7.954,0.035
7.956,0.03
7.958,0.03
7.96,0.03
7.962,0.04
7.964,0.05
7.966,0.065
7.968,0.08
7.97,0.09
7.972,0.09
7.974,0.09
7.976,0.08
7.978,0.07
7.98,0.065
7.982,0.06
7.984,0.065
7.986,0.08
7.988,0.1
7.99,0.13
7.992,0.155
7.994,0.18
7.996,0.2
7.998,0.215
8,0.225
8.002,0.225
8.004,0.23
8.006,0.23
8.008,0.24
8.01,0.245
8.012,0.26
8.014,0.275
8.016,0.29
8.018,0.305
8.02,0.32
8.022,0.335
8.024,0.345
8.026,0.355
8.028,0.365
8.03,0.375
8.032,0.38
8.034,0.38
8.036,0.38
8.038,0.375
8.04,0.365
8.042,0.36
8.044,0.35
8.046,0.35
8.048,0.35
8.05,0.35
8.052,0.355
8.054,0.36
8.056,0.355
8.058,0.345
8.06,0.33
8.062,0.31
8.064,0.28
8.066,0.255
8.068,0.23
8.07,0.215
8.072,0.205
8.074,0.205
8.076,0.2
8.078,0.2
8.08,0.195
8.082,0.185
8.084,0.165
8.086,0.14
8.088,0.115
8.09,0.095
8.092,0.08
8.094,0.07
8.096,0.07
8.098,0.075
8.1,0.085
8.102,0.09
8.104,0.09
8.106,0.085
8.108,0.07
8.11,0.05
8.112,0.03
8.114,0.01
8.116,0
8.118,-0.01
8.12,-0.01
8.122,-0.01
8.124,-0.005
8.126,-0.005
8.128,-0.01
8.13,-0.015
8.132,-0.025
8.134,-0.04
8.136,-0.05
8.138,-0.06
8.14,-0.06
8.142,-0.055
8.144,-0.04
8.146,-0.02
8.148,0
8.15,0.025
8.152,0.04
8.154,0.055
8.156,0.06
8.158,0.06
8.16,0.05
8.162,0.04
8.164,0.025
8.166,0.01
8.168,-0.005
8.17,-0.01
8.172,-0.015
8.174,-0.015
8.176,-0.01
8.178,-0.005
8.18,0
8.182,0
8.184,0
8.186,0
8.188,-0.005
8.19,-0.005
8.192,-0.01
8.194,-0.01
8.196,-0.005
8.198,-0.005
8.2,-0.005
8.202,0
8.204,-0.005
8.206,-0.005
8.208,-0.01
8.21,-0.015
8.212,-0.02
8.214,-0.025
8.216,-0.025
8.218,-0.02
8.22,-0.01
8.222,0
8.224,0.01
8.226,0.015
8.228,0.025
8.23,0.025
8.232,0.025
8.234,0.02
8.236,0.01
8.238,0
8.24,-0.01
8.242,-0.025
8.244,-0.035
8.246,-0.04
8.248,-0.04
8.25,-0.04
8.252,-0.03
8.254,-0.02
8.256,-0.01
8.258,0
8.26,0.01
8.262,0.015
8.264,0.01
8.266,0
8.268,-0.01
8.27,-0.025
8.272,-0.04
8.274,-0.05
8.276,-0.055
8.278,-0.055
8.28,-0.045
8.282,-0.035
8.284,-0.025
8.286,-0.015
8.288,-0.01
8.29,-0.01
8.292,-0.015
8.294,-0.02
8.296,-0.025
8.298,-0.025
8.3,-0.03
8.302,-0.025
8.304,-0.02
8.306,-0.015
8.308,-0.015
8.31,-0.015
8.312,-0.02
8.314,-0.025
8.316,-0.035
8.318,-0.045
8.32,-0.05
8.322,-0.055
8.324,-0.06
8.326,-0.06
8.328,-0.055
8.33,-0.055
8.332,-0.05
8.334,-0.045
8.336,-0.045
8.338,-0.045
8.34,-0.05
8.342,-0.05
8.344,-0.05
8.346,-0.055
8.348,-0.06
8.35,-0.065
8.352,-0.065
8.354,-0.07
8.356,-0.07
8.358,-0.065
8.36,-0.06
8.362,-0.05
8.364,-0.04
8.366,-0.025
8.368,-0.015
8.37,-0.01
8.372,-0.015
8.374,-0.025
8.376,-0.04
8.378,-0.055
8.38,-0.075
8.382,-0.085
8.384,-0.095
8.386,-0.09
8.388,-0.08
8.39,-0.065
8.392,-0.045
8.394,-0.025
8.396,-0.005
8.398,0.005
8.4,0.005
8.402,0
8.404,-0.005
8.406,-0.02
8.408,-0.035
8.41,-0.045
8.412,-0.06
8.414,-0.07
8.416,-0.075
8.418,-0.08
8.42,-0.085
8.422,-0.08
8.424,-0.08
8.426,-0.07
8.428,-0.06
8.43,-0.045
8.432,-0.035
8.434,-0.03
8.436,-0.025
8.438,-0.03
8.44,-0.04
8.442,-0.055
8.444,-0.075
8.446,-0.09
8.448,-0.105
8.45,-0.115
8.452,-0.11
8.454,-0.1
8.456,-0.085
8.458,-0.065
8.46,-0.045
8.462,-0.025
8.464,-0.01
8.466,-0.005
8.468,-0.005
8.47,-0.015
8.472,-0.025
8.474,-0.04
8.476,-0.055
8.478,-0.07
8.48,-0.08
8.482,-0.09
8.484,-0.095
8.486,-0.1
8.488,-0.1
8.49,-0.1
8.492,-0.09
8.494,-0.085
8.496,-0.075
8.498,-0.065
8.5,-0.055
8.502,-0.045
8.504,-0.04
8.506,-0.035
8.508,-0.035
8.51,-0.04
8.512,-0.05
8.514,-0.06
8.516,-0.075
8.518,-0.085
8.52,-0.095
8.522,-0.105
8.524,-0.115
8.526,-0.12
8.528,-0.12
8.53,-0.115
8.532,-0.105
8.534,-0.095
8.536,-0.08
8.538,-0.065
8.54,-0.055
8.542,-0.045
8.544,-0.04
8.546,-0.035
8.548,-0.04
8.55,-0.045
8.552,-0.05
8.554,-0.055
8.556,-0.06
8.558,-0.06
8.56,-0.065
8.562,-0.065
8.564,-0.07
8.566,-0.07
8.568,-0.075
8.57,-0.08
8.572,-0.085
8.574,-0.085
8.576,-0.085
8.578,-0.075
8.58,-0.07
8.582,-0.055
8.584,-0.045
8.586,-0.04
8.588,-0.04
8.59,-0.045
8.592,-0.055
8.594,-0.065
8.596,-0.085
8.598,-0.095
8.6,-0.105
8.602,-0.105
8.604,-0.1
8.606,-0.09
8.608,-0.075
8.61,-0.06
8.612,-0.045
8.614,-0.04
8.616,-0.035
8.618,-0.035
8.62,-0.04
8.622,-0.045
8.624,-0.05
8.626,-0.055
8.628,-0.055
8.63,-0.055
8.632,-0.06
8.634,-0.065
8.636,-0.075
8.638,-0.085
8.64,-0.095
8.642,-0.105
8.644,-0.11
8.646,-0.105
8.648,-0.09
8.65,-0.07
8.652,-0.045
8.654,-0.025
8.656,-0.015
8.658,-0.01
8.66,-0.015
8.662,-0.025
8.664,-0.045
8.666,-0.065
8.668,-0.08
8.67,-0.09
8.672,-0.09
8.674,-0.085
8.676,-0.075
8.678,-0.065
8.68,-0.06
8.682,-0.06
8.684,-0.06
8.686,-0.065
8.688,-0.07
8.69,-0.065
8.692,-0.06
8.694,-0.055
8.696,-0.04
8.698,-0.03
8.7,-0.02
8.702,-0.015
8.704,-0.015
8.706,-0.02
8.708,-0.025
8.71,-0.025
8.712,-0.025
8.714,-0.015
8.716,-0.005
8.718,0.005
8.72,0.02
8.722,0.025
8.724,0.03
8.726,0.025
8.728,0.02
8.73,0.015
8.732,0.01
8.734,0.01
8.736,0.01
8.738,0.005
8.74,0
8.742,-0.01
8.744,-0.025
8.746,-0.04
8.748,-0.055
8.75,-0.07
8.752,-0.08
8.754,-0.08
8.756,-0.075
8.758,-0.065
8.76,-0.05
8.762,-0.04
8.764,-0.035
8.766,-0.035
8.768,-0.05
8.77,-0.065
8.772,-0.08
8.774,-0.095
8.776,-0.105
8.778,-0.105
8.78,-0.1
8.782,-0.085
8.784,-0.075
8.786,-0.065
8.788,-0.06
8.79,-0.06
8.792,-0.07
8.794,-0.08
8.796,-0.09
8.798,-0.1
8.8,-0.105
8.802,-0.105
8.804,-0.1
8.806,-0.09
8.808,-0.08
8.81,-0.08
8.812,-0.08
8.814,-0.08
8.816,-0.09
8.818,-0.1
8.82,-0.105
8.822,-0.105
8.824,-0.105
8.826,-0.1
8.828,-0.09
8.83,-0.08
8.832,-0.075
8.834,-0.07
8.836,-0.07
8.838,-0.07
8.84,-0.07
8.842,-0.075
8.844,-0.075
8.846,-0.07
8.848,-0.065
8.85,-0.055
8.852,-0.04
8.854,-0.015
8.856,0.015
8.858,0.06
8.86,0.115
8.862,0.175
8.864,0.245
8.866,0.305
8.868,0.355
8.87,0.385
8.872,0.39
8.874,0.36
8.876,0.305
8.878,0.225
8.88,0.135
8.882,0.035
8.884,-0.055
8.886,-0.13
8.888,-0.19
8.89,-0.23
8.892,-0.26
8.894,-0.27
8.896,-0.28
8.898,-0.285
8.9,-0.285
8.902,-0.285
8.904,-0.275
8.906,-0.26
8.908,-0.235
8.91,-0.205
8.912,-0.175
8.914,-0.14
8.916,-0.115
8.918,-0.095
8.92,-0.085
8.922,-0.085
8.924,-0.09
8.926,-0.095
8.928,-0.1
8.93,-0.105
8.932,-0.105
8.934,-0.1
8.936,-0.095
8.938,-0.095
8.94,-0.09
8.942,-0.09
8.944,-0.09
8.946,-0.09
8.948,-0.09
8.95,-0.08
8.952,-0.075
8.954,-0.06
8.956,-0.05
8.958,-0.045
8.96,-0.035
8.962,-0.035
8.964,-0.035
8.966,-0.035
8.968,-0.04
8.97,-0.035
8.972,-0.03
8.974,-0.02
8.976,-0.005
8.978,0.015
8.98,0.04
8.982,0.07
8.984,0.095
8.986,0.12
8.988,0.14
8.99,0.155
8.992,0.16
8.994,0.16
8.996,0.15
8.998,0.13
9,0.115
9.002,0.1
9.004,0.095
9.006,0.095
9.008,0.11
9.01,0.125
9.012,0.145
9.014,0.16
9.016,0.165
9.018,0.155
9.02,0.135
9.022,0.105
9.024,0.07
9.026,0.045
9.028,0.03
9.03,0.035
9.032,0.055
9.034,0.085
9.036,0.115
9.038,0.145
9.04,0.165
9.042,0.17
9.044,0.165
9.046,0.145
9.048,0.12
9.05,0.105
9.052,0.095
9.054,0.1
9.056,0.115
9.058,0.14
9.06,0.17
9.062,0.195
9.064,0.22
9.066,0.24
9.068,0.25
9.07,0.26
9.072,0.27
9.074,0.285
9.076,0.3
9.078,0.32
9.08,0.34
9.082,0.36
9.084,0.375
9.086,0.38
9.088,0.38
9.09,0.38
9.092,0.375
9.094,0.37
9.096,0.375
9.098,0.38
9.1,0.385
9.102,0.395
9.104,0.405
9.106,0.415
9.108,0.42
9.11,0.42
9.112,0.42
9.114,0.42
9.116,0.42
9.118,0.415
9.12,0.415
9.122,0.41
9.124,0.405
9.126,0.395
9.128,0.385
9.13,0.37
9.132,0.35
9.134,0.325
9.136,0.305
9.138,0.285
9.14,0.265
9.142,0.25
9.144,0.235
9.146,0.225
9.148,0.215
9.15,0.205
9.152,0.2
9.154,0.19
9.156,0.18
9.158,0.175
9.16,0.165
9.162,0.155
9.164,0.145
9.166,0.135
9.168,0.115
9.17,0.1
9.172,0.08
9.174,0.06
9.176,0.04
9.178,0.025
9.18,0.015
9.182,0.01
9.184,0.015
9.186,0.02
9.188,0.03
9.19,0.04
9.192,0.05
9.194,0.055
9.196,0.05
9.198,0.045
9.2,0.035
9.202,0.025
9.204,0.015
9.206,0.005
9.208,0
9.21,0
9.212,0
9.214,0
9.216,0
9.218,0
9.22,-0.005
9.222,-0.01
9.224,-0.015
9.226,-0.015
9.228,-0.015
9.23,-0.01
9.232,-0.005
9.234,0.005
9.236,0.02
9.238,0.025
9.24,0.03
9.242,0.03
9.244,0.03
9.246,0.02
9.248,0.01
9.25,0
9.252,-0.01
9.254,-0.02
9.256,-0.02
9.258,-0.02
9.26,-0.02
9.262,-0.01
9.264,-0.005
9.266,0.005
9.268,0.01
9.27,0.02
9.272,0.02
9.274,0.025
9.276,0.025
9.278,0.02
9.28,0.015
9.282,0.005
9.284,-0.005
9.286,-0.015
9.288,-0.025
9.29,-0.03
9.292,-0.035
9.294,-0.03
9.296,-0.025
9.298,-0.01
9.3,0.005
9.302,0.02
9.304,0.035
9.306,0.045
9.308,0.045
9.31,0.04
9.312,0.03
9.314,0.01
9.316,-0.01
9.318,-0.03
9.32,-0.04
9.322,-0.045
9.324,-0.04
9.326,-0.03
9.328,-0.015
9.33,0
9.332,0.01
9.334,0.015
9.336,0.015
9.338,0.01
9.34,0
9.342,-0.015
9.344,-0.025
9.346,-0.04
9.348,-0.045
9.35,-0.05
9.352,-0.055
9.354,-0.055
9.356,-0.05
9.358,-0.045
9.36,-0.04
9.362,-0.03
9.364,-0.02
9.366,-0.01
9.368,-0.005
9.37,-0.005
9.372,-0.01
9.374,-0.025
9.376,-0.04
9.378,-0.055
9.38,-0.075
9.382,-0.085
9.384,-0.09
9.386,-0.085
9.388,-0.075
9.39,-0.065
9.392,-0.055
9.394,-0.045
9.396,-0.045
9.398,-0.05
9.4,-0.06
9.402,-0.07
9.404,-0.075
9.406,-0.08
9.408,-0.075
9.41,-0.065
9.412,-0.05
9.414,-0.035
9.416,-0.025
9.418,-0.02
9.42,-0.025
9.422,-0.035
9.424,-0.055
9.426,-0.07
9.428,-0.085
9.43,-0.09
9.432,-0.09
9.434,-0.08
9.436,-0.065
9.438,-0.045
9.44,-0.03
9.442,-0.02
9.444,-0.015
9.446,-0.02
9.448,-0.03
9.45,-0.045
9.452,-0.06
9.454,-0.07
9.456,-0.085
9.458,-0.09
9.46,-0.09
9.462,-0.085
9.464,-0.075
9.466,-0.07
9.468,-0.06
9.47,-0.055
9.472,-0.05
9.474,-0.055
9.476,-0.055
9.478,-0.055
9.48,-0.06
9.482,-0.06
9.484,-0.055
9.486,-0.055
9.488,-0.05
9.49,-0.05
9.492,-0.05
9.494,-0.055
9.496,-0.065
9.498,-0.075
9.5,-0.085
9.502,-0.095
9.504,-0.1
9.506,-0.1
9.508,-0.1
9.51,-0.09
9.512,-0.085
9.514,-0.08
9.516,-0.08
9.518,-0.075
9.52,-0.08
9.522,-0.08
9.524,-0.08
9.526,-0.075
9.528,-0.07
9.53,-0.06
9.532,-0.05
9.534,-0.04
9.536,-0.035
9.538,-0.035
9.54,-0.04
9.542,-0.045
9.544,-0.055
9.546,-0.06
9.548,-0.07
9.55,-0.075
9.552,-0.075
9.554,-0.075
9.556,-0.075
9.558,-0.07
9.56,-0.07
9.562,-0.065
9.564,-0.06
9.566,-0.055
9.568,-0.05
9.57,-0.045
9.572,-0.04
9.574,-0.04
9.576,-0.04
9.578,-0.05
9.58,-0.06
9.582,-0.07
9.584,-0.085
9.586,-0.095
9.588,-0.105
9.59,-0.105
9.592,-0.1
9.594,-0.09
9.596,-0.08
9.598,-0.065
9.6,-0.06
9.602,-0.055
9.604,-0.055
9.606,-0.065
9.608,-0.075
9.61,-0.085
9.612,-0.09
9.614,-0.09
9.616,-0.085
9.618,-0.075
9.62,-0.065
9.622,-0.06
9.624,-0.06
9.626,-0.065
9.628,-0.08
9.63,-0.1
9.632,-0.115
9.634,-0.125
9.636,-0.125
9.638,-0.11
9.64,-0.085
9.642,-0.05
9.644,-0.015
9.646,0.01
9.648,0.025
9.65,0.02
9.652,0
9.654,-0.035
9.656,-0.075
9.658,-0.115
9.66,-0.145
9.662,-0.16
9.664,-0.16
9.666,-0.145
9.668,-0.125
9.67,-0.095
9.672,-0.07
9.674,-0.055
9.676,-0.045
9.678,-0.045
9.68,-0.05
9.682,-0.06
9.684,-0.07
9.686,-0.08
9.688,-0.08
9.69,-0.075
9.692,-0.07
9.694,-0.06
9.696,-0.05
9.698,-0.04
9.7,-0.035
9.702,-0.035
9.704,-0.04
9.706,-0.05
9.708,-0.06
9.71,-0.065
9.712,-0.075
9.714,-0.08
9.716,-0.075
9.718,-0.07
9.72,-0.06
9.722,-0.05
9.724,-0.04
9.726,-0.03
9.728,-0.025
9.73,-0.03
9.732,-0.035
9.734,-0.05
9.736,-0.065
9.738,-0.085
9.74,-0.095
9.742,-0.105
9.744,-0.105
9.746,-0.1
9.748,-0.09
9.75,-0.075
9.752,-0.065
9.754,-0.06
9.756,-0.055
9.758,-0.055
9.76,-0.06
9.762,-0.065
9.764,-0.07
9.766,-0.075
9.768,-0.075
9.77,-0.075
9.772,-0.075
9.774,-0.075
9.776,-0.075
9.778,-0.075
9.78,-0.075
9.782,-0.075
9.784,-0.075
9.786,-0.07
9.788,-0.06
9.79,-0.05
9.792,-0.03
9.794,-0.015
9.796,0
9.798,0.015
9.8,0.02
9.802,0.02
9.804,0.015
9.806,0.01
9.808,0
9.81,-0.01
9.812,-0.015
9.814,-0.015
9.816,-0.01
9.818,0
9.82,0.01
9.822,0.02
9.824,0.03
9.826,0.035
9.828,0.035
9.83,0.025
9.832,0.015
9.834,0
9.836,-0.015
9.838,-0.035
9.84,-0.05
9.842,-0.06
9.844,-0.07
9.846,-0.075
9.848,-0.075
9.85,-0.07
9.852,-0.065
9.854,-0.055
9.856,-0.05
9.858,-0.045
9.86,-0.045
9.862,-0.05
9.864,-0.06
9.866,-0.07
9.868,-0.08
9.87,-0.085
9.872,-0.09
9.874,-0.09
9.876,-0.085
9.878,-0.07
9.88,-0.06
9.882,-0.045
9.884,-0.035
9.886,-0.035
9.888,-0.035
9.89,-0.04
9.892,-0.05
9.894,-0.06
9.896,-0.07
9.898,-0.075
9.9,-0.08
9.902,-0.08
9.904,-0.08
9.906,-0.08
9.908,-0.075
9.91,-0.075
9.912,-0.075
9.914,-0.075
9.916,-0.075
9.918,-0.065
9.92,-0.06
9.922,-0.05
9.924,-0.035
9.926,-0.03
9.928,-0.025
9.93,-0.025
9.932,-0.035
9.934,-0.045
9.936,-0.055
9.938,-0.06
9.94,-0.055
9.942,-0.035
9.944,0.01
9.946,0.07
9.948,0.145
9.95,0.23
9.952,0.31
9.954,0.38
9.956,0.43
9.958,0.45
9.96,0.435
9.962,0.395
9.964,0.33
9.966,0.245
9.968,0.16
9.97,0.07
9.972,-0.005
9.974,-0.07
9.976,-0.12
9.978,-0.16
9.98,-0.185
9.982,-0.21
9.984,-0.225
9.986,-0.24
9.988,-0.255
9.99,-0.26
9.992,-0.255
9.994,-0.245
9.996,-0.225
9.998,-0.2
