0,0.02
0.002,0.015
0.004,0.005
0.006,0
0.008,-0.01
0.01,-0.015
0.012,-0.02
0.014,-0.02
0.016,-0.02
0.018,-0.02
0.02,-0.015
0.022,-0.01
0.024,-0.01
0.026,-0.01
0.028,-0.01
0.03,-0.01
0.032,-0.01
0.034,-0.01
0.036,-0.01
0.038,-0.005
0.04,-0.005
0.042,0
0.044,0.005
0.046,0.01
0.048,0.01
0.05,0.01
0.052,0.01
0.054,0.01
0.056,0.01
0.058,0.01
0.06,0.005
0.062,0.005
0.064,0
0.066,0
0.068,-0.005
0.07,-0.01
0.072,-0.015
0.074,-0.015
0.076,-0.015
0.078,-0.01
0.08,-0.005
0.082,0
0.084,0
0.086,0.005
0.088,0.005
0.09,0
0.092,-0.01
0.094,-0.02
0.096,-0.025
0.098,-0.03
0.1,-0.035
0.102,-0.03
0.104,-0.025
0.106,-0.02
0.108,-0.015
0.11,-0.01
0.112,-0.01
0.114,-0.01
0.116,-0.015
0.118,-0.02
0.12,-0.025
0.122,-0.025
0.124,-0.025
0.126,-0.025
0.128,-0.02
0.13,-0.01
0.132,0
0.134,0.005
0.136,0.01
0.138,0.01
0.14,0.01
0.142,0.005
0.144,0.005
0.146,0.005
0.148,0.005
0.15,0.01
0.152,0.015
0.154,0.02
0.156,0.025
0.158,0.03
0.16,0.035
0.162,0.04
0.164,0.04
0.166,0.04
0.168,0.04
0.17,0.04
0.172,0.035
0.174,0.025
0.176,0.01
0.178,-0.005
0.18,-0.02
0.182,-0.035
0.184,-0.045
0.186,-0.05
0.188,-0.05
0.19,-0.045
0.192,-0.035
0.194,-0.025
0.196,-0.015
0.198,-0.01
0.2,-0.005
0.202,-0.005
0.204,-0.005
0.206,-0.01
0.208,-0.02
0.21,-0.025
0.212,-0.03
0.214,-0.035
0.216,-0.035
0.218,-0.04
0.22,-0.04
0.222,-0.04
0.224,-0.04
0.226,-0.04
0.228,-0.035
0.23,-0.03
0.232,-0.03
0.234,-0.025
0.236,-0.02
0.238,-0.02
0.24,-0.02
0.242,-0.02
0.244,-0.025
0.246,-0.035
0.248,-0.04
0.25,-0.05
0.252,-0.06
0.254,-0.075
0.256,-0.085
0.258,-0.095
0.26,-0.1
0.262,-0.095
0.264,-0.085
0.266,-0.055
0.268,-0.01
0.27,0.055
0.272,0.125
0.274,0.205
0.276,0.275
0.278,0.335
0.28,0.375
0.282,0.385
0.284,0.365
0.286,0.32
0.288,0.25
0.29,0.165
0.292,0.075
0.294,-0.015
0.296,-0.095
0.298,-0.155
0.3,-0.2
0.302,-0.23
0.304,-0.245
0.306,-0.25
0.308,-0.245
0.31,-0.235
0.312,-0.22
0.314,-0.2
0.316,-0.18
0.318,-0.16
0.32,-0.14
0.322,-0.115
0.324,-0.1
0.326,-0.08
0.328,-0.07
0.33,-0.065
0.332,-0.06
0.334,-0.06
0.336,-0.06
0.338,-0.06
0.34,-0.055
0.342,-0.05
0.344,-0.045
0.346,-0.035
0.348,-0.03
0.35,-0.025
0.352,-0.025
0.354,-0.02
0.356,-0.02
0.358,-0.02
0.36,-0.02
0.362,-0.015
0.364,-0.01
0.366,-0.005
0.368,-0.005
0.37,0
0.372,0
0.374,-0.005
0.376,-0.01
0.378,-0.015
0.38,-0.015
0.382,-0.02
0.384,-0.02
0.386,-0.02
0.388,-0.015
0.39,-0.015
0.392,-0.01
0.394,-0.01
0.396,-0.005
0.398,-0.01
0.4,-0.01
0.402,-0.01
0.404,-0.01
0.406,-0.015
0.408,-0.015
0.41,-0.02
0.412,-0.02
0.414,-0.02
0.416,-0.025
0.418,-0.02
0.42,-0.02
0.422,-0.015
0.424,-0.005
0.426,0.005
0.428,0.02
0.43,0.03
0.432,0.04
0.434,0.045
0.436,0.05
0.438,0.05
0.44,0.045
0.442,0.04
0.444,0.035
0.446,0.03
0.448,0.025
0.45,0.025
0.452,0.03
0.454,0.03
0.456,0.04
0.458,0.045
0.46,0.05
0.462,0.06
0.464,0.065
0.466,0.075
0.468,0.085
0.47,0.09
0.472,0.095
0.474,0.1
0.476,0.1
0.478,0.1
0.48,0.095
0.482,0.09
0.484,0.09
0.486,0.09
0.488,0.09
0.49,0.095
0.492,0.105
0.494,0.12
0.496,0.135
0.498,0.15
0.5,0.17
0.502,0.18
0.504,0.19
0.506,0.195
0.508,0.2
0.51,0.195
0.512,0.185
0.514,0.18
0.516,0.17
0.518,0.165
0.52,0.16
0.522,0.155
0.524,0.155
0.526,0.155
0.528,0.16
0.53,0.16
0.532,0.16
0.534,0.16
0.536,0.155
0.538,0.15
0.54,0.145
0.542,0.14
0.544,0.13
0.546,0.125
0.548,0.12
0.55,0.11
0.552,0.1
0.554,0.09
0.556,0.075
0.558,0.065
0.56,0.05
0.562,0.035
0.564,0.025
0.566,0.02
0.568,0.015
0.57,0.015
0.572,0.015
0.574,0.015
0.576,0.015
0.578,0.01
0.58,0.005
0.582,-0.005
0.584,-0.015
0.586,-0.025
0.588,-0.035
0.59,-0.04
0.592,-0.045
0.594,-0.05
0.596,-0.045
0.598,-0.045
0.6,-0.04
0.602,-0.035
0.604,-0.03
0.606,-0.025
0.608,-0.025
0.61,-0.025
0.612,-0.03
0.614,-0.035
0.616,-0.04
0.618,-0.045
0.62,-0.055
0.622,-0.06
0.624,-0.06
0.626,-0.065
0.628,-0.065
0.63,-0.07
0.632,-0.07
0.634,-0.07
0.636,-0.07
0.638,-0.07
0.64,-0.065
0.642,-0.06
0.644,-0.055
0.646,-0.045
0.648,-0.035
0.65,-0.025
0.652,-0.02
0.654,-0.015
0.656,-0.015
0.658,-0.02
0.66,-0.03
0.662,-0.04
0.664,-0.05
0.666,-0.065
0.668,-0.07
0.67,-0.075
0.672,-0.075
0.674,-0.07
0.676,-0.06
0.678,-0.05
0.68,-0.045
0.682,-0.035
0.684,-0.03
0.686,-0.03
0.688,-0.03
0.69,-0.03
0.692,-0.03
0.694,-0.03
0.696,-0.03
0.698,-0.03
0.7,-0.03
0.702,-0.035
0.704,-0.035
0.706,-0.035
0.708,-0.03
0.71,-0.025
0.712,-0.02
0.714,-0.015
0.716,-0.005
0.718,0.005
0.72,0.01
0.722,0.01
0.724,0.005
0.726,0
0.728,-0.01
0.73,-0.02
0.732,-0.03
0.734,-0.035
0.736,-0.035
0.738,-0.035
0.74,-0.03
0.742,-0.02
0.744,-0.015
0.746,-0.005
0.748,-0.005
0.75,0
0.752,-0.005
0.754,-0.005
0.756,-0.01
0.758,-0.015
0.76,-0.015
0.762,-0.015
0.764,-0.015
0.766,-0.015
0.768,-0.015
0.77,-0.02
0.772,-0.02
0.774,-0.02
0.776,-0.02
0.778,-0.015
0.78,-0.015
0.782,-0.015
0.784,-0.015
0.786,-0.015
0.788,-0.02
0.79,-0.02
0.792,-0.025
0.794,-0.03
0.796,-0.03
0.798,-0.03
0.8,-0.03
0.802,-0.03
0.804,-0.03
0.806,-0.03
0.808,-0.035
0.81,-0.04
0.812,-0.045
0.814,-0.05
0.816,-0.05
0.818,-0.05
0.82,-0.05
0.822,-0.045
0.824,-0.035
0.826,-0.025
0.828,-0.02
0.83,-0.015
0.832,-0.015
0.834,-0.02
0.836,-0.03
0.838,-0.04
0.84,-0.045
0.842,-0.05
0.844,-0.05
0.846,-0.05
0.848,-0.04
0.85,-0.035
0.852,-0.03
0.854,-0.025
0.856,-0.03
0.858,-0.035
0.86,-0.04
0.862,-0.05
0.864,-0.055
0.866,-0.06
0.868,-0.055
0.87,-0.05
0.872,-0.04
0.874,-0.03
0.876,-0.02
0.878,-0.015
0.88,-0.015
0.882,-0.02
0.884,-0.03
0.886,-0.04
0.888,-0.05
0.89,-0.055
0.892,-0.06
0.894,-0.06
0.896,-0.055
0.898,-0.05
0.9,-0.04
0.902,-0.03
0.904,-0.025
0.906,-0.02
0.908,-0.02
0.91,-0.025
0.912,-0.03
0.914,-0.035
0.916,-0.04
0.918,-0.04
0.92,-0.04
0.922,-0.035
0.924,-0.03
0.926,-0.025
0.928,-0.02
0.93,-0.02
0.932,-0.02
0.934,-0.025
0.936,-0.03
0.938,-0.035
0.94,-0.04
0.942,-0.04
0.944,-0.04
0.946,-0.04
0.948,-0.035
0.95,-0.035
0.952,-0.03
0.954,-0.03
0.956,-0.03
0.958,-0.03
0.96,-0.03
0.962,-0.03
0.964,-0.03
0.966,-0.03
0.968,-0.03
0.97,-0.025
0.972,-0.02
0.974,-0.02
0.976,-0.02
0.978,-0.025
0.98,-0.03
0.982,-0.03
0.984,-0.03
0.986,-0.025
0.988,-0.015
0.99,-0.005
0.992,0.005
0.994,0.015
0.996,0.025
0.998,0.025
1,0.025
1.002,0.02
1.004,0.01
1.006,0
1.008,-0.005
1.01,-0.005
1.012,-0.005
1.014,0
1.016,0.005
1.018,0.01
1.02,0.01
1.022,0.01
1.024,0.005
1.026,0
1.028,-0.01
1.03,-0.015
1.032,-0.02
1.034,-0.025
1.036,-0.025
1.038,-0.025
1.04,-0.025
1.042,-0.03
1.044,-0.03
1.046,-0.035
1.048,-0.04
1.05,-0.045
1.052,-0.045
1.054,-0.05
1.056,-0.05
1.058,-0.045
1.06,-0.045
1.062,-0.035
1.064,-0.03
1.066,-0.025
1.068,-0.02
1.07,-0.015
1.072,-0.015
1.074,-0.01
1.076,-0.01
1.078,-0.015
1.08,-0.02
1.082,-0.025
1.084,-0.035
1.086,-0.045
1.088,-0.055
1.09,-0.06
1.092,-0.065
1.094,-0.07
1.096,-0.075
1.098,-0.075
1.1,-0.08
1.102,-0.08
1.104,-0.075
1.106,-0.07
1.108,-0.06
1.11,-0.04
1.112,-0.01
1.114,0.03
1.116,0.08
1.118,0.14
1.12,0.205
1.122,0.27
1.124,0.325
1.126,0.365
1.128,0.385
1.13,0.38
1.132,0.35
1.134,0.29
1.136,0.215
1.138,0.12
1.14,0.025
1.142,-0.065
1.144,-0.145
1.146,-0.205
1.148,-0.24
1.15,-0.26
1.152,-0.255
1.154,-0.24
1.156,-0.215
1.158,-0.19
1.16,-0.165
1.162,-0.145
1.164,-0.13
1.166,-0.12
1.168,-0.115
1.17,-0.11
1.172,-0.105
1.174,-0.095
1.176,-0.085
1.178,-0.07
1.18,-0.06
1.182,-0.045
1.184,-0.035
1.186,-0.025
1.188,-0.02
1.19,-0.015
1.192,-0.015
1.194,-0.015
1.196,-0.015
1.198,-0.015
1.2,-0.01
1.202,-0.01
1.204,0
1.206,0.005
1.208,0.015
1.21,0.02
1.212,0.025
1.214,0.03
1.216,0.03
1.218,0.03
1.22,0.025
1.222,0.02
1.224,0.015
1.226,0.01
1.228,0
1.23,-0.005
1.232,-0.01
1.234,-0.015
1.236,-0.015
1.238,-0.02
1.24,-0.015
1.242,-0.01
1.244,-0.005
1.246,0.005
1.248,0.015
1.25,0.025
1.252,0.03
1.254,0.03
1.256,0.03
1.258,0.025
1.26,0.015
1.262,0.01
1.264,0
1.266,0
1.268,-0.005
1.27,0
1.272,0.005
1.274,0.015
1.276,0.025
1.278,0.03
1.28,0.04
1.282,0.045
1.284,0.045
1.286,0.05
1.288,0.05
1.29,0.055
1.292,0.055
1.294,0.06
1.296,0.06
1.298,0.06
1.3,0.06
1.302,0.06
1.304,0.06
1.306,0.055
1.308,0.055
1.31,0.05
1.312,0.05
1.314,0.055
1.316,0.06
1.318,0.07
1.32,0.075
1.322,0.085
1.324,0.095
1.326,0.1
1.328,0.105
1.33,0.11
1.332,0.115
1.334,0.115
1.336,0.12
1.338,0.125
1.34,0.13
1.342,0.135
1.344,0.14
1.346,0.145
1.348,0.15
1.35,0.155
1.352,0.165
1.354,0.17
1.356,0.18
1.358,0.19
1.36,0.195
1.362,0.2
1.364,0.2
1.366,0.195
1.368,0.185
1.37,0.17
1.372,0.16
1.374,0.15
1.376,0.14
1.378,0.14
1.38,0.145
1.382,0.155
1.384,0.16
1.386,0.17
1.388,0.17
1.39,0.165
1.392,0.155
1.394,0.14
1.396,0.125
1.398,0.105
1.4,0.09
1.402,0.075
1.404,0.065
1.406,0.06
1.408,0.055
1.41,0.045
1.412,0.035
1.414,0.025
1.416,0.01
1.418,0
1.42,-0.01
1.422,-0.015
1.424,-0.01
1.426,-0.005
1.428,0
1.43,0.01
1.432,0.015
1.434,0.02
1.436,0.02
1.438,0.015
1.44,0.005
1.442,-0.005
1.444,-0.01
1.446,-0.015
1.448,-0.02
1.45,-0.02
1.452,-0.015
1.454,-0.015
1.456,-0.015
1.458,-0.015
1.46,-0.02
1.462,-0.025
1.464,-0.03
1.466,-0.035
1.468,-0.04
1.47,-0.04
1.472,-0.035
1.474,-0.035
1.476,-0.035
1.478,-0.03
1.48,-0.035
1.482,-0.04
1.484,-0.045
1.486,-0.055
1.488,-0.06
1.49,-0.065
1.492,-0.07
1.494,-0.065
1.496,-0.055
1.498,-0.05
1.5,-0.035
1.502,-0.025
1.504,-0.02
1.506,-0.015
1.508,-0.015
1.51,-0.015
1.512,-0.02
1.514,-0.025
1.516,-0.03
1.518,-0.035
1.52,-0.035
1.522,-0.04
1.524,-0.04
1.526,-0.04
1.528,-0.04
1.53,-0.04
1.532,-0.035
1.534,-0.035
1.536,-0.03
1.538,-0.025
1.54,-0.02
1.542,-0.015
1.544,-0.01
1.546,-0.005
1.548,-0.005
1.55,0
1.552,0
1.554,0
1.556,0
1.558,0
1.56,-0.005
1.562,-0.005
1.564,-0.01
1.566,-0.015
1.568,-0.02
1.57,-0.025
1.572,-0.03
1.574,-0.03
1.576,-0.03
1.578,-0.025
1.58,-0.02
1.582,-0.01
1.584,0
1.586,0.005
1.588,0.01
1.59,0.01
1.592,0.005
1.594,0
1.596,-0.01
1.598,-0.015
1.6,-0.02
1.602,-0.025
1.604,-0.025
1.606,-0.02
1.608,-0.015
1.61,-0.01
1.612,-0.01
1.614,-0.01
1.616,-0.01
1.618,-0.015
1.62,-0.02
1.622,-0.02
1.624,-0.02
1.626,-0.02
1.628,-0.015
1.63,-0.01
1.632,-0.01
1.634,-0.005
1.636,-0.01
1.638,-0.015
1.64,-0.02
1.642,-0.025
1.644,-0.03
1.646,-0.03
1.648,-0.025
1.65,-0.02
1.652,-0.01
1.654,0
1.656,0.005
1.658,0.01
1.66,0.005
1.662,-0.005
1.664,-0.015
1.666,-0.025
1.668,-0.035
1.67,-0.04
1.672,-0.045
1.674,-0.04
1.676,-0.04
1.678,-0.03
1.68,-0.025
1.682,-0.02
1.684,-0.015
1.686,-0.015
1.688,-0.015
1.69,-0.015
1.692,-0.015
1.694,-0.015
1.696,-0.015
1.698,-0.01
1.7,-0.005
1.702,0
1.704,0.005
1.706,0.005
1.708,0.005
1.71,-0.005
1.712,-0.01
1.714,-0.02
1.716,-0.03
1.718,-0.04
1.72,-0.045
1.722,-0.045
1.724,-0.04
1.726,-0.035
1.728,-0.025
1.73,-0.02
1.732,-0.015
1.734,-0.01
1.736,-0.015
1.738,-0.02
1.74,-0.025
1.742,-0.035
1.744,-0.04
1.746,-0.045
1.748,-0.05
1.75,-0.05
1.752,-0.05
1.754,-0.045
1.756,-0.045
1.758,-0.04
1.76,-0.04
1.762,-0.04
1.764,-0.04
1.766,-0.04
1.768,-0.035
1.77,-0.03
1.772,-0.025
1.774,-0.02
1.776,-0.01
1.778,-0.005
1.78,-0.005
1.782,-0.005
1.784,-0.01
1.786,-0.015
1.788,-0.025
1.79,-0.035
1.792,-0.04
1.794,-0.045
1.796,-0.045
1.798,-0.04
1.8,-0.035
1.802,-0.03
1.804,-0.02
1.806,-0.015
1.808,-0.015
1.81,-0.01
1.812,-0.015
1.814,-0.02
1.816,-0.03
1.818,-0.035
1.82,-0.04
1.822,-0.045
1.824,-0.04
1.826,-0.04
1.828,-0.03
1.83,-0.025
1.832,-0.015
1.834,-0.01
1.836,-0.01
1.838,-0.01
1.84,-0.015
1.842,-0.025
1.844,-0.035
1.846,-0.04
1.848,-0.045
1.85,-0.045
1.852,-0.04
1.854,-0.03
1.856,-0.015
1.858,-0.005
1.86,0.005
1.862,0.015
1.864,0.015
1.866,0.01
1.868,0.005
1.87,0
1.872,-0.005
1.874,-0.01
1.876,-0.005
1.878,0
1.88,0.005
1.882,0.015
1.884,0.02
1.886,0.025
1.888,0.025
1.89,0.02
1.892,0.015
1.894,0.01
1.896,0.005
1.898,0
1.9,0
1.902,-0.005
1.904,-0.005
1.906,-0.01
1.908,-0.015
1.91,-0.025
1.912,-0.035
1.914,-0.04
1.916,-0.05
1.918,-0.05
1.92,-0.05
1.922,-0.05
1.924,-0.04
1.926,-0.035
1.928,-0.03
1.93,-0.025
1.932,-0.025
1.934,-0.025
1.936,-0.035
1.938,-0.04
1.94,-0.05
1.942,-0.055
1.944,-0.06
1.946,-0.06
1.948,-0.055
1.95,-0.05
1.952,-0.045
1.954,-0.035
1.956,-0.03
1.958,-0.025
1.96,-0.025
1.962,-0.025
1.964,-0.025
1.966,-0.03
1.968,-0.035
1.97,-0.045
1.972,-0.055
1.974,-0.065
1.976,-0.07
1.978,-0.08
1.98,-0.08
1.982,-0.07
1.984,-0.045
1.986,-0.01
1.988,0.04
1.99,0.105
1.992,0.175
1.994,0.245
1.996,0.31
1.998,0.365
2,0.39
2.002,0.395
2.004,0.37
2.006,0.32
2.008,0.25
2.01,0.165
2.012,0.07
2.014,-0.025
2.016,-0.11
2.018,-0.18
2.02,-0.235
2.022,-0.275
2.024,-0.29
2.026,-0.29
2.028,-0.27
2.03,-0.245
2.032,-0.21
2.034,-0.175
2.036,-0.145
2.038,-0.12
2.04,-0.1
2.042,-0.085
2.044,-0.08
2.046,-0.075
2.048,-0.07
2.05,-0.065
2.052,-0.055
2.054,-0.045
2.056,-0.03
2.058,-0.02
2.06,-0.015
2.062,-0.01
2.064,-0.015
2.066,-0.02
2.068,-0.03
2.07,-0.04
2.072,-0.05
2.074,-0.055
2.076,-0.055
2.078,-0.045
2.08,-0.035
2.082,-0.025
2.084,-0.015
2.086,-0.01
2.088,-0.005
2.09,-0.005
2.092,-0.01
2.094,-0.01
2.096,-0.015
2.098,-0.015
2.1,-0.01
2.102,-0.005
2.104,-0.005
2.106,0
2.108,0.005
2.11,0.01
2.112,0.01
2.114,0.015
2.116,0.015
2.118,0.015
2.12,0.015
2.122,0.015
2.124,0.015
2.126,0.01
2.128,0.01
2.13,0.005
2.132,0.005
2.134,0.005
2.136,0.005
2.138,0.005
2.14,0.005
2.142,0.01
2.144,0.01
2.146,0.01
2.148,0.01
2.15,0.01
2.152,0.015
2.154,0.02
2.156,0.025
2.158,0.035
2.16,0.045
2.162,0.05
2.164,0.055
2.166,0.055
2.168,0.05
2.17,0.04
2.172,0.03
2.174,0.02
2.176,0.015
2.178,0.015
2.18,0.02
2.182,0.03
2.184,0.045
2.186,0.06
2.188,0.075
2.19,0.08
2.192,0.085
2.194,0.09
2.196,0.085
2.198,0.085
2.2,0.085
2.202,0.085
2.204,0.09
2.206,0.1
2.208,0.115
2.21,0.13
2.212,0.14
2.214,0.15
2.216,0.155
2.218,0.155
2.22,0.155
2.222,0.155
2.224,0.15
2.226,0.15
2.228,0.15
2.23,0.15
2.232,0.16
2.234,0.165
2.236,0.17
2.238,0.18
2.24,0.185
2.242,0.19
2.244,0.195
2.246,0.195
2.248,0.195
2.25,0.19
2.252,0.185
2.254,0.18
2.256,0.17
2.258,0.165
2.26,0.155
2.262,0.145
2.264,0.135
2.266,0.125
2.268,0.115
2.27,0.11
2.272,0.105
2.274,0.1
2.276,0.095
2.278,0.095
2.28,0.085
2.282,0.08
2.284,0.07
2.286,0.055
2.288,0.04
2.29,0.025
2.292,0.015
2.294,0
2.296,-0.005
2.298,-0.01
2.3,-0.01
2.302,-0.01
2.304,-0.005
2.306,-0.005
2.308,0
2.31,0
2.312,0
2.314,0
2.316,-0.005
2.318,-0.005
2.32,-0.005
2.322,-0.005
2.324,-0.01
2.326,-0.01
2.328,-0.015
2.33,-0.015
2.332,-0.02
2.334,-0.025
2.336,-0.03
2.338,-0.035
2.34,-0.04
2.342,-0.04
2.344,-0.045
2.346,-0.045
2.348,-0.05
2.35,-0.05
2.352,-0.05
2.354,-0.05
2.356,-0.05
2.358,-0.045
2.36,-0.04
2.362,-0.035
2.364,-0.025
2.366,-0.015
2.368,-0.01
2.37,-0.01
2.372,-0.015
2.374,-0.03
2.376,-0.04
2.378,-0.055
2.38,-0.07
2.382,-0.08
2.384,-0.08
2.386,-0.075
2.388,-0.065
2.39,-0.05
2.392,-0.035
2.394,-0.025
2.396,-0.02
2.398,-0.015
2.4,-0.02
2.402,-0.025
2.404,-0.03
2.406,-0.03
2.408,-0.03
2.41,-0.025
2.412,-0.02
2.414,-0.015
2.416,-0.01
2.418,-0.005
2.42,-0.01
2.422,-0.015
2.424,-0.025
2.426,-0.035
2.428,-0.04
2.43,-0.04
2.432,-0.035
2.434,-0.025
2.436,-0.015
2.438,0
2.44,0.01
2.442,0.015
2.444,0.015
2.446,0.01
2.448,0.005
2.45,-0.005
2.452,-0.015
2.454,-0.025
2.456,-0.03
2.458,-0.035
2.46,-0.035
2.462,-0.03
2.464,-0.025
2.466,-0.015
2.468,-0.005
2.47,0.005
2.472,0.01
2.474,0.02
2.476,0.025
2.478,0.02
2.48,0.015
2.482,0.005
2.484,-0.005
2.486,-0.015
2.488,-0.025
2.49,-0.035
2.492,-0.035
2.494,-0.03
2.496,-0.025
2.498,-0.02
2.5,-0.01
2.502,-0.01
2.504,-0.01
2.506,-0.01
2.508,-0.015
2.51,-0.025
2.512,-0.03
2.514,-0.035
2.516,-0.04
2.518,-0.04
2.52,-0.035
2.522,-0.035
2.524,-0.035
2.526,-0.03
2.528,-0.03
2.53,-0.03
2.532,-0.03
2.534,-0.03
2.536,-0.025
2.538,-0.025
2.54,-0.02
2.542,-0.02
2.544,-0.02
2.546,-0.02
2.548,-0.02
2.55,-0.025
2.552,-0.03
2.554,-0.035
2.556,-0.045
2.558,-0.05
2.56,-0.055
2.562,-0.06
2.564,-0.065
2.566,-0.065
2.568,-0.06
2.57,-0.055
2.572,-0.05
2.574,-0.04
2.576,-0.025
2.578,-0.015
2.58,-0.01
2.582,0
2.584,0
2.586,-0.005
2.588,-0.01
2.59,-0.02
2.592,-0.035
2.594,-0.045
2.596,-0.055
2.598,-0.06
2.6,-0.055
2.602,-0.05
2.604,-0.035
2.606,-0.02
2.608,-0.005
2.61,0.005
2.612,0.01
2.614,0.005
2.616,-0.005
2.618,-0.02
2.62,-0.04
2.622,-0.06
2.624,-0.07
2.626,-0.08
2.628,-0.075
2.63,-0.07
2.632,-0.06
2.634,-0.05
2.636,-0.04
2.638,-0.03
2.64,-0.03
2.642,-0.035
2.644,-0.04
2.646,-0.045
2.648,-0.05
2.65,-0.05
2.652,-0.05
2.654,-0.04
2.656,-0.03
2.658,-0.02
2.66,-0.015
2.662,-0.005
2.664,-0.005
2.666,-0.005
2.668,-0.01
2.67,-0.01
2.672,-0.015
2.674,-0.02
2.676,-0.025
2.678,-0.03
2.68,-0.035
2.682,-0.04
2.684,-0.045
2.686,-0.05
2.688,-0.055
2.69,-0.055
2.692,-0.055
2.694,-0.05
2.696,-0.045
2.698,-0.035
2.7,-0.03
2.702,-0.025
2.704,-0.025
2.706,-0.02
2.708,-0.02
2.71,-0.02
2.712,-0.025
2.714,-0.025
2.716,-0.025
2.718,-0.03
2.72,-0.03
2.722,-0.035
2.724,-0.04
2.726,-0.045
2.728,-0.05
2.73,-0.05
2.732,-0.05
2.734,-0.05
2.736,-0.045
2.738,-0.035
2.74,-0.025
2.742,-0.02
2.744,-0.02
2.746,-0.02
2.748,-0.03
2.75,-0.04
2.752,-0.05
2.754,-0.06
2.756,-0.07
2.758,-0.065
2.76,-0.06
2.762,-0.05
2.764,-0.035
2.766,-0.02
2.768,-0.01
2.77,-0.005
2.772,-0.005
2.774,-0.01
2.776,-0.015
2.778,-0.02
2.78,-0.02
2.782,-0.02
2.784,-0.015
2.786,-0.005
2.788,0.005
2.79,0.015
2.792,0.015
2.794,0.015
2.796,0.01
2.798,0.005
2.8,-0.005
2.802,-0.01
2.804,-0.015
2.806,-0.015
2.808,-0.01
2.81,-0.005
2.812,0
2.814,0.01
2.816,0.015
2.818,0.015
2.82,0.015
2.822,0.015
2.824,0.015
2.826,0.01
2.828,0.005
2.83,0
2.832,0
2.834,0
2.836,0
2.838,0
2.84,0.005
2.842,0.01
2.844,0.015
2.846,0.015
2.848,0.015
2.85,0.01
2.852,0
2.854,-0.01
2.856,-0.025
2.858,-0.04
2.86,-0.05
2.862,-0.06
2.864,-0.065
2.866,-0.065
2.868,-0.055
2.87,-0.05
2.872,-0.04
2.874,-0.03
2.876,-0.025
2.878,-0.025
2.88,-0.025
2.882,-0.03
2.884,-0.035
2.886,-0.04
2.888,-0.045
2.89,-0.05
2.892,-0.055
2.894,-0.055
2.896,-0.055
2.898,-0.05
2.9,-0.05
2.902,-0.045
2.904,-0.045
2.906,-0.045
2.908,-0.045
2.91,-0.055
2.912,-0.06
2.914,-0.07
2.916,-0.075
2.918,-0.075
2.92,-0.06
2.922,-0.035
2.924,0.005
2.926,0.06
2.928,0.125
2.93,0.195
2.932,0.26
2.934,0.315
2.936,0.355
2.938,0.37
2.94,0.365
2.942,0.34
2.944,0.29
2.946,0.22
2.948,0.145
2.95,0.065
2.952,-0.015
2.954,-0.09
2.956,-0.15
2.958,-0.2
2.96,-0.235
2.962,-0.255
2.964,-0.26
2.966,-0.25
2.968,-0.235
2.97,-0.21
2.972,-0.185
2.974,-0.16
2.976,-0.135
2.978,-0.115
2.98,-0.095
2.982,-0.08
2.984,-0.07
2.986,-0.055
2.988,-0.045
2.99,-0.035
2.992,-0.03
2.994,-0.02
2.996,-0.02
2.998,-0.015
3,-0.015
3.002,-0.01
3.004,-0.015
3.006,-0.015
3.008,-0.015
3.01,-0.015
3.012,-0.015
3.014,-0.02
3.016,-0.02
3.018,-0.025
3.02,-0.03
3.022,-0.03
3.024,-0.03
3.026,-0.03
3.028,-0.025
3.03,-0.015
3.032,-0.005
3.034,0.005
3.036,0.015
3.038,0.025
3.04,0.025
3.042,0.025
3.044,0.02
3.046,0.01
3.048,0
3.05,-0.01
3.052,-0.015
3.054,-0.02
3.056,-0.015
3.058,-0.01
3.06,0
3.062,0.005
3.064,0.015
3.066,0.02
3.068,0.025
3.07,0.025
3.072,0.02
3.074,0.015
3.076,0.005
3.078,0
3.08,0
3.082,0
3.084,0.005
3.086,0.01
3.088,0.015
3.09,0.02
3.092,0.025
3.094,0.03
3.096,0.035
3.098,0.035
3.1,0.035
3.102,0.035
3.104,0.035
3.106,0.035
3.108,0.035
3.11,0.04
3.112,0.04
3.114,0.045
3.116,0.05
3.118,0.055
3.12,0.065
3.122,0.07
3.124,0.075
3.126,0.08
3.128,0.085
3.13,0.085
3.132,0.085
3.134,0.08
3.136,0.08
3.138,0.075
3.14,0.075
3.142,0.075
3.144,0.085
3.146,0.095
3.148,0.115
3.15,0.13
3.152,0.145
3.154,0.16
3.156,0.165
3.158,0.165
3.16,0.165
3.162,0.16
3.164,0.155
3.166,0.145
3.168,0.145
3.17,0.145
3.172,0.15
3.174,0.155
3.176,0.16
3.178,0.165
3.18,0.17
3.182,0.175
3.184,0.175
3.186,0.18
3.188,0.18
3.19,0.18
3.192,0.185
3.194,0.185
3.196,0.185
3.198,0.18
3.2,0.17
3.202,0.155
3.204,0.14
3.206,0.125
3.208,0.115
3.21,0.1
3.212,0.095
3.214,0.09
3.216,0.085
3.218,0.08
3.22,0.075
3.222,0.065
3.224,0.055
3.226,0.045
3.228,0.03
3.23,0.02
3.232,0.005
3.234,0
3.236,-0.005
3.238,-0.01
3.24,-0.01
3.242,-0.01
3.244,-0.01
3.246,-0.015
3.248,-0.015
3.25,-0.02
3.252,-0.02
3.254,-0.02
3.256,-0.02
3.258,-0.02
3.26,-0.015
3.262,-0.005
3.264,0
3.266,0.005
3.268,0.005
3.27,0
3.272,-0.005
3.274,-0.015
3.276,-0.025
3.278,-0.035
3.28,-0.045
3.282,-0.055
3.284,-0.06
3.286,-0.055
3.288,-0.055
3.29,-0.045
3.292,-0.035
3.294,-0.03
3.296,-0.02
3.298,-0.015
3.3,-0.015
3.302,-0.015
3.304,-0.015
3.306,-0.02
3.308,-0.03
3.31,-0.035
3.312,-0.045
3.314,-0.05
3.316,-0.055
3.318,-0.055
3.32,-0.055
3.322,-0.045
3.324,-0.04
3.326,-0.025
3.328,-0.015
3.33,-0.005
3.332,0
3.334,0
3.336,-0.005
3.338,-0.015
3.34,-0.025
3.342,-0.035
3.344,-0.04
3.346,-0.045
3.348,-0.04
3.35,-0.04
3.352,-0.03
3.354,-0.025
3.356,-0.02
3.358,-0.02
3.36,-0.025
3.362,-0.025
3.364,-0.03
3.366,-0.03
3.368,-0.03
3.37,-0.02
3.372,-0.01
3.374,0
3.376,0.01
3.378,0.015
3.38,0.02
3.382,0.015
3.384,0.005
3.386,-0.01
3.388,-0.02
3.39,-0.025
3.392,-0.03
3.394,-0.025
3.396,-0.02
3.398,-0.01
3.4,0
3.402,0
3.404,0
3.406,-0.005
3.408,-0.01
3.41,-0.02
3.412,-0.03
3.414,-0.035
3.416,-0.035
3.418,-0.03
3.42,-0.03
3.422,-0.025
3.424,-0.02
3.426,-0.02
3.428,-0.02
3.43,-0.02
3.432,-0.025
3.434,-0.03
3.436,-0.03
3.438,-0.03
3.44,-0.03
3.442,-0.035
3.444,-0.035
3.446,-0.035
3.448,-0.04
3.45,-0.045
3.452,-0.045
3.454,-0.045
3.456,-0.045
3.458,-0.035
3.46,-0.025
3.462,-0.015
3.464,-0.005
3.466,0
3.468,0.005
3.47,0
3.472,-0.01
3.474,-0.025
3.476,-0.04
3.478,-0.05
3.48,-0.06
3.482,-0.07
3.484,-0.07
3.486,-0.065
3.488,-0.055
3.49,-0.045
3.492,-0.035
3.494,-0.03
3.496,-0.03
3.498,-0.03
3.5,-0.035
3.502,-0.045
3.504,-0.05
3.506,-0.055
3.508,-0.06
3.51,-0.055
3.512,-0.05
3.514,-0.04
3.516,-0.03
3.518,-0.02
3.52,-0.01
3.522,-0.01
3.524,-0.01
3.526,-0.02
3.528,-0.03
3.53,-0.045
3.532,-0.055
3.534,-0.06
3.536,-0.065
3.538,-0.06
3.54,-0.05
3.542,-0.04
3.544,-0.03
3.546,-0.02
3.548,-0.015
3.55,-0.015
3.552,-0.02
3.554,-0.03
3.556,-0.035
3.558,-0.045
3.56,-0.05
3.562,-0.05
3.564,-0.045
3.566,-0.04
3.568,-0.035
3.57,-0.03
3.572,-0.025
3.574,-0.025
3.576,-0.03
3.578,-0.035
3.58,-0.04
3.582,-0.04
3.584,-0.04
3.586,-0.04
3.588,-0.04
3.59,-0.035
3.592,-0.03
3.594,-0.025
3.596,-0.025
3.598,-0.03
3.6,-0.03
3.602,-0.035
3.604,-0.035
3.606,-0.04
3.608,-0.035
3.61,-0.035
3.612,-0.03
3.614,-0.02
3.616,-0.02
3.618,-0.015
3.62,-0.02
3.622,-0.025
3.624,-0.03
3.626,-0.04
3.628,-0.05
3.63,-0.055
3.632,-0.06
3.634,-0.055
3.636,-0.05
3.638,-0.04
3.64,-0.03
3.642,-0.02
3.644,-0.01
3.646,-0.005
3.648,-0.005
3.65,-0.01
3.652,-0.02
3.654,-0.03
3.656,-0.04
3.658,-0.05
3.66,-0.05
3.662,-0.055
3.664,-0.055
3.666,-0.05
3.668,-0.045
3.67,-0.035
3.672,-0.03
3.674,-0.025
3.676,-0.02
3.678,-0.015
3.68,-0.01
3.682,-0.01
3.684,-0.005
3.686,-0.005
3.688,-0.005
3.69,-0.005
3.692,-0.01
3.694,-0.01
3.696,-0.01
3.698,-0.01
3.7,-0.005
3.702,0.005
3.704,0.015
3.706,0.025
3.708,0.035
3.71,0.04
3.712,0.04
3.714,0.035
3.716,0.025
3.718,0.01
3.72,0
3.722,-0.015
3.724,-0.025
3.726,-0.03
3.728,-0.03
3.73,-0.03
3.732,-0.025
3.734,-0.02
3.736,-0.015
3.738,-0.01
3.74,-0.01
3.742,-0.01
3.744,-0.01
3.746,-0.015
3.748,-0.02
3.75,-0.025
3.752,-0.03
3.754,-0.035
3.756,-0.045
3.758,-0.05
3.76,-0.06
3.762,-0.065
3.764,-0.065
3.766,-0.06
3.768,-0.05
3.77,-0.04
3.772,-0.03
3.774,-0.015
3.776,-0.01
3.778,-0.005
3.78,-0.005
3.782,-0.01
3.784,-0.02
3.786,-0.03
3.788,-0.04
3.79,-0.05
3.792,-0.055
3.794,-0.06
3.796,-0.065
3.798,-0.07
3.8,-0.07
3.802,-0.075
3.804,-0.075
3.806,-0.07
3.808,-0.055
3.81,-0.035
3.812,0.005
3.814,0.055
3.816,0.115
3.818,0.18
3.82,0.245
3.822,0.305
3.824,0.345
3.826,0.37
3.828,0.365
3.83,0.34
3.832,0.29
3.834,0.22
3.836,0.14
3.838,0.055
3.84,-0.025
3.842,-0.1
3.844,-0.16
3.846,-0.205
3.848,-0.23
3.85,-0.245
3.852,-0.245
3.854,-0.24
3.856,-0.225
3.858,-0.21
3.86,-0.19
3.862,-0.17
3.864,-0.15
3.866,-0.13
3.868,-0.105
3.87,-0.085
3.872,-0.065
3.874,-0.05
3.876,-0.035
3.878,-0.03
3.88,-0.025
3.882,-0.025
3.884,-0.03
3.886,-0.035
3.888,-0.04
3.89,-0.045
3.892,-0.04
3.894,-0.04
3.896,-0.03
3.898,-0.02
3.9,-0.01
3.902,-0.005
3.904,0.005
3.906,0.01
3.908,0.01
3.91,0.01
3.912,0.005
3.914,0
3.916,-0.005
3.918,-0.01
3.92,-0.01
3.922,-0.015
3.924,-0.01
3.926,-0.005
3.928,0.005
3.93,0.015
3.932,0.025
3.934,0.035
3.936,0.04
3.938,0.04
3.94,0.035
3.942,0.03
3.944,0.02
3.946,0.01
3.948,0
3.95,-0.01
3.952,-0.01
3.954,-0.01
3.956,-0.005
3.958,0.005
3.96,0.015
3.962,0.02
3.964,0.025
3.966,0.03
3.968,0.035
3.97,0.035
3.972,0.035
3.974,0.035
3.976,0.04
3.978,0.04
3.98,0.045
3.982,0.045
3.984,0.045
3.986,0.045
3.988,0.04
3.99,0.04
3.992,0.035
3.994,0.035
3.996,0.04
3.998,0.045
4,0.05
4.002,0.06
4.004,0.07
4.006,0.075
4.008,0.08
4.01,0.085
4.012,0.085
4.014,0.08
4.016,0.08
4.018,0.08
4.02,0.085
4.022,0.085
4.024,0.09
4.026,0.1
4.028,0.105
4.03,0.115
4.032,0.12
4.034,0.13
4.036,0.135
4.038,0.14
4.04,0.145
4.042,0.15
4.044,0.155
4.046,0.165
4.048,0.17
4.05,0.175
4.052,0.18
4.054,0.185
4.056,0.195
4.058,0.2
4.06,0.21
4.062,0.215
4.064,0.22
4.066,0.22
4.068,0.215
4.07,0.21
4.072,0.2
4.074,0.19
4.076,0.18
4.078,0.17
4.08,0.165
4.082,0.16
4.084,0.16
4.086,0.16
4.088,0.16
4.09,0.16
4.092,0.155
4.094,0.15
4.096,0.135
4.098,0.12
4.1,0.105
4.102,0.085
4.104,0.07
4.106,0.06
4.108,0.05
4.11,0.045
4.112,0.04
4.114,0.035
4.116,0.03
4.118,0.03
4.12,0.025
4.122,0.02
4.124,0.02
4.126,0.02
4.128,0.02
4.13,0.02
4.132,0.025
4.134,0.025
4.136,0.025
4.138,0.02
4.14,0.015
4.142,0.005
4.144,-0.005
4.146,-0.02
4.148,-0.03
4.15,-0.045
4.152,-0.05
4.154,-0.055
4.156,-0.055
4.158,-0.05
4.16,-0.045
4.162,-0.035
4.164,-0.025
4.166,-0.02
4.168,-0.02
4.17,-0.02
4.172,-0.025
4.174,-0.03
4.176,-0.04
4.178,-0.045
4.18,-0.05
4.182,-0.05
4.184,-0.05
4.186,-0.045
4.188,-0.04
4.19,-0.03
4.192,-0.025
4.194,-0.02
4.196,-0.015
4.198,-0.015
4.2,-0.015
4.202,-0.02
4.204,-0.025
4.206,-0.03
4.208,-0.03
4.21,-0.035
4.212,-0.03
4.214,-0.025
4.216,-0.02
4.218,-0.015
4.22,-0.01
4.222,-0.005
4.224,-0.005
4.226,-0.005
4.228,-0.01
4.23,-0.015
4.232,-0.025
4.234,-0.03
4.236,-0.03
4.238,-0.035
4.24,-0.03
4.242,-0.03
4.244,-0.025
4.246,-0.02
4.248,-0.015
4.25,-0.015
4.252,-0.015
4.254,-0.015
4.256,-0.02
4.258,-0.02
4.26,-0.02
4.262,-0.02
4.264,-0.015
4.266,-0.01
4.268,0
4.27,0.01
4.272,0.02
4.274,0.025
4.276,0.025
4.278,0.025
4.28,0.02
4.282,0.01
4.284,0.005
4.286,-0.005
4.288,-0.01
4.29,-0.01
4.292,-0.01
4.294,-0.01
4.296,-0.01
4.298,-0.005
4.3,-0.005
4.302,-0.005
4.304,-0.01
4.306,-0.01
4.308,-0.01
4.31,-0.005
4.312,-0.005
4.314,0
4.316,0.005
4.318,0.01
4.32,0.01
4.322,0.005
4.324,0
4.326,-0.005
4.328,-0.01
4.33,-0.015
4.332,-0.015
4.334,-0.015
4.336,-0.015
4.338,-0.01
4.34,-0.005
4.342,-0.005
4.344,-0.005
4.346,-0.005
4.348,-0.01
4.35,-0.015
4.352,-0.015
4.354,-0.015
4.356,-0.015
4.358,-0.015
4.36,-0.01
4.362,-0.01
4.364,-0.01
4.366,-0.01
4.368,-0.015
4.37,-0.02
4.372,-0.03
4.374,-0.04
4.376,-0.045
4.378,-0.05
4.38,-0.05
4.382,-0.045
4.384,-0.045
4.386,-0.04
4.388,-0.04
4.39,-0.04
4.392,-0.035
4.394,-0.035
4.396,-0.035
4.398,-0.03
4.4,-0.025
4.402,-0.015
4.404,-0.01
4.406,-0.005
4.408,-0.005
4.41,-0.005
4.412,-0.005
4.414,-0.01
4.416,-0.015
4.418,-0.015
4.42,-0.015
4.422,-0.015
4.424,-0.015
4.426,-0.01
4.428,-0.01
4.43,-0.01
4.432,-0.015
4.434,-0.02
4.436,-0.03
4.438,-0.04
4.44,-0.045
4.442,-0.05
4.444,-0.05
4.446,-0.05
4.448,-0.045
4.45,-0.04
4.452,-0.04
4.454,-0.04
4.456,-0.04
4.458,-0.045
4.46,-0.045
4.462,-0.05
4.464,-0.045
4.466,-0.04
4.468,-0.035
4.47,-0.025
4.472,-0.02
4.474,-0.015
4.476,-0.015
4.478,-0.015
4.48,-0.02
4.482,-0.025
4.484,-0.03
4.486,-0.035
4.488,-0.035
4.49,-0.03
4.492,-0.02
4.494,-0.015
4.496,-0.01
4.498,-0.005
4.5,-0.005
4.502,-0.01
4.504,-0.02
4.506,-0.025
4.508,-0.035
4.51,-0.04
4.512,-0.045
4.514,-0.045
4.516,-0.045
4.518,-0.045
4.52,-0.04
4.522,-0.04
4.524,-0.04
4.526,-0.04
4.528,-0.04
4.53,-0.04
4.532,-0.035
4.534,-0.03
4.536,-0.02
4.538,-0.015
4.54,-0.005
4.542,0
4.544,0
4.546,0
4.548,0
4.55,0
4.552,0
4.554,0
4.556,0.005
4.558,0.015
4.56,0.02
4.562,0.025
4.564,0.03
4.566,0.03
4.568,0.02
4.57,0.01
4.572,0
4.574,-0.015
4.576,-0.025
4.578,-0.03
4.58,-0.035
4.582,-0.035
4.584,-0.03
4.586,-0.02
4.588,-0.015
4.59,-0.005
4.592,0
4.594,0.005
4.596,0.005
4.598,0.005
4.6,0.005
4.602,0
4.604,-0.005
4.606,-0.015
4.608,-0.025
4.61,-0.03
4.612,-0.04
4.614,-0.045
4.616,-0.05
4.618,-0.05
4.62,-0.045
4.622,-0.04
4.624,-0.035
4.626,-0.03
4.628,-0.025
4.63,-0.025
4.632,-0.025
4.634,-0.025
4.636,-0.025
4.638,-0.03
4.64,-0.035
4.642,-0.035
4.644,-0.04
4.646,-0.04
4.648,-0.045
4.65,-0.05
4.652,-0.055
4.654,-0.06
4.656,-0.065
4.658,-0.065
4.66,-0.065
4.662,-0.065
4.664,-0.065
4.666,-0.06
4.668,-0.06
4.67,-0.06
4.672,-0.065
4.674,-0.075
4.676,-0.085
4.678,-0.09
4.68,-0.085
4.682,-0.065
4.684,-0.03
4.686,0.02
4.688,0.09
4.69,0.17
4.692,0.25
4.694,0.32
4.696,0.375
4.698,0.4
4.7,0.395
4.702,0.36
4.704,0.3
4.706,0.215
4.708,0.125
4.71,0.035
4.712,-0.055
4.714,-0.125
4.716,-0.185
4.718,-0.225
4.72,-0.255
4.722,-0.27
4.724,-0.275
4.726,-0.275
4.728,-0.27
4.73,-0.255
4.732,-0.24
4.734,-0.215
4.736,-0.185
4.738,-0.155
4.74,-0.125
4.742,-0.1
4.744,-0.08
4.746,-0.07
4.748,-0.065
4.75,-0.06
4.752,-0.065
4.754,-0.065
4.756,-0.065
4.758,-0.06
4.76,-0.055
4.762,-0.045
4.764,-0.035
4.766,-0.03
4.768,-0.025
4.77,-0.025
4.772,-0.03
4.774,-0.035
4.776,-0.04
4.778,-0.045
4.78,-0.05
4.782,-0.05
4.784,-0.045
4.786,-0.04
4.788,-0.035
4.79,-0.03
4.792,-0.025
4.794,-0.02
4.796,-0.02
4.798,-0.02
4.8,-0.02
4.802,-0.02
4.804,-0.02
4.806,-0.02
4.808,-0.015
4.81,-0.015
4.812,-0.01
4.814,-0.01
4.816,-0.01
4.818,-0.01
4.82,-0.01
4.822,-0.015
4.824,-0.015
4.826,-0.02
4.828,-0.02
4.83,-0.015
4.832,-0.01
4.834,-0.005
4.836,0
4.838,0.005
4.84,0.01
4.842,0.015
4.844,0.015
4.846,0.015
4.848,0.01
4.85,0.01
4.852,0.005
4.854,0.005
4.856,0.005
4.858,0.005
4.86,0.005
4.862,0.005
4.864,0.01
4.866,0.015
4.868,0.02
4.87,0.025
4.872,0.035
4.874,0.04
4.876,0.04
4.878,0.045
4.88,0.04
4.882,0.04
4.884,0.04
4.886,0.035
4.888,0.035
4.89,0.04
4.892,0.045
4.894,0.055
4.896,0.065
4.898,0.08
4.9,0.09
4.902,0.1
4.904,0.105
4.906,0.11
4.908,0.11
4.91,0.11
4.912,0.11
4.914,0.11
4.916,0.115
4.918,0.115
4.92,0.12
4.922,0.13
4.924,0.14
4.926,0.15
4.928,0.16
4.93,0.17
4.932,0.175
4.934,0.185
4.936,0.185
4.938,0.19
4.94,0.19
4.942,0.185
4.944,0.185
4.946,0.18
4.948,0.175
4.95,0.175
4.952,0.17
4.954,0.165
4.956,0.16
4.958,0.155
4.96,0.15
4.962,0.14
4.964,0.13
4.966,0.12
4.968,0.11
4.97,0.1
4.972,0.085
4.974,0.075
4.976,0.065
4.978,0.055
4.98,0.045
4.982,0.04
4.984,0.035
4.986,0.03
4.988,0.025
4.99,0.025
4.992,0.02
4.994,0.015
4.996,0.01
4.998,0
5,-0.01
5.002,-0.02
5.004,-0.03
5.006,-0.04
5.008,-0.045
5.01,-0.05
5.012,-0.045
5.014,-0.04
5.016,-0.03
5.018,-0.025
5.02,-0.015
5.022,-0.01
5.024,-0.01
5.026,-0.015
5.028,-0.02
5.03,-0.025
5.032,-0.03
5.034,-0.035
5.036,-0.04
5.038,-0.04
5.04,-0.045
5.042,-0.045
5.044,-0.045
5.046,-0.045
5.048,-0.05
5.05,-0.055
5.052,-0.055
5.054,-0.06
5.056,-0.06
5.058,-0.06
5.06,-0.06
5.062,-0.06
5.064,-0.06
5.066,-0.06
5.068,-0.06
5.07,-0.065
5.072,-0.065
5.074,-0.06
5.076,-0.055
5.078,-0.05
5.08,-0.035
5.082,-0.025
5.084,-0.01
5.086,0
5.088,0.005
5.09,0.005
5.092,0
5.094,-0.01
5.096,-0.025
5.098,-0.04
5.1,-0.05
5.102,-0.06
5.104,-0.06
5.106,-0.06
5.108,-0.05
5.11,-0.035
5.112,-0.025
5.114,-0.01
5.116,-0.005
5.118,0
5.12,-0.005
5.122,-0.02
5.124,-0.03
5.126,-0.05
5.128,-0.06
5.13,-0.07
5.132,-0.07
5.134,-0.065
5.136,-0.055
5.138,-0.04
5.14,-0.02
5.142,-0.005
5.144,0.01
5.146,0.015
5.148,0.015
5.15,0.015
5.152,0.005
5.154,0
5.156,-0.01
5.158,-0.015
5.16,-0.015
5.162,-0.015
5.164,-0.015
5.166,-0.01
5.168,-0.01
5.17,-0.005
5.172,-0.005
5.174,0
5.176,0
5.178,0
5.18,0
5.182,0
5.184,-0.005
5.186,-0.005
5.188,-0.005
5.19,-0.01
5.192,-0.01
5.194,-0.015
5.196,-0.015
5.198,-0.015
5.2,-0.015
5.202,-0.01
5.204,-0.01
5.206,-0.01
5.208,-0.015
5.21,-0.015
5.212,-0.02
5.214,-0.025
5.216,-0.03
5.218,-0.03
5.22,-0.03
5.222,-0.03
5.224,-0.025
5.226,-0.02
5.228,-0.015
5.23,-0.005
5.232,0
5.234,0
5.236,0
5.238,0
5.24,0
5.242,-0.005
5.244,-0.01
5.246,-0.02
5.248,-0.025
5.25,-0.03
5.252,-0.03
5.254,-0.035
5.256,-0.03
5.258,-0.03
5.26,-0.025
5.262,-0.015
5.264,-0.01
5.266,0
5.268,0.005
5.27,0.005
5.272,0.005
5.274,0
5.276,-0.005
5.278,-0.01
5.28,-0.015
5.282,-0.02
5.284,-0.025
5.286,-0.025
5.288,-0.025
5.29,-0.025
5.292,-0.025
5.294,-0.025
5.296,-0.025
5.298,-0.03
5.3,-0.035
5.302,-0.035
5.304,-0.04
5.306,-0.04
5.308,-0.04
5.31,-0.04
5.312,-0.035
5.314,-0.03
5.316,-0.02
5.318,-0.015
5.32,-0.015
5.322,-0.015
5.324,-0.015
5.326,-0.02
5.328,-0.025
5.33,-0.025
5.332,-0.025
5.334,-0.025
5.336,-0.025
5.338,-0.015
5.34,-0.01
5.342,0
5.344,0.005
5.346,0.005
5.348,0.005
5.35,0
5.352,-0.005
5.354,-0.015
5.356,-0.025
5.358,-0.035
5.36,-0.045
5.362,-0.05
5.364,-0.05
5.366,-0.05
5.368,-0.045
5.37,-0.035
5.372,-0.03
5.374,-0.02
5.376,-0.015
5.378,-0.015
5.38,-0.01
5.382,-0.015
5.384,-0.02
5.386,-0.025
5.388,-0.03
5.39,-0.035
5.392,-0.04
5.394,-0.04
5.396,-0.035
5.398,-0.03
5.4,-0.02
5.402,-0.01
5.404,0
5.406,0.01
5.408,0.015
5.41,0.015
5.412,0.01
5.414,0.005
5.416,-0.005
5.418,-0.01
5.42,-0.015
5.422,-0.02
5.424,-0.02
5.426,-0.015
5.428,-0.01
5.43,0
5.432,0.005
5.434,0.01
5.436,0.015
5.438,0.02
5.44,0.02
5.442,0.02
5.444,0.02
5.446,0.02
5.448,0.02
5.45,0.02
5.452,0.02
5.454,0.02
5.456,0.015
5.458,0.015
5.46,0.015
5.462,0.015
5.464,0.015
5.466,0.02
5.468,0.025
5.47,0.03
5.472,0.03
5.474,0.03
5.476,0.025
5.478,0.015
5.48,0.005
5.482,-0.005
5.484,-0.01
5.486,-0.015
5.488,-0.015
5.49,-0.01
5.492,-0.005
5.494,0
5.496,0
5.498,-0.005
5.5,-0.02
5.502,-0.03
5.504,-0.045
5.506,-0.055
5.508,-0.06
5.51,-0.06
5.512,-0.05
5.514,-0.035
5.516,-0.015
5.518,0
5.52,0.01
5.522,0.01
5.524,0.005
5.526,-0.005
5.528,-0.025
5.53,-0.04
5.532,-0.055
5.534,-0.06
5.536,-0.065
5.538,-0.06
5.54,-0.05
5.542,-0.04
5.544,-0.03
5.546,-0.03
5.548,-0.035
5.55,-0.045
5.552,-0.055
5.554,-0.07
5.556,-0.075
5.558,-0.07
5.56,-0.05
5.562,-0.015
5.564,0.035
5.566,0.1
5.568,0.17
5.57,0.24
5.572,0.3
5.574,0.345
5.576,0.375
5.578,0.38
5.58,0.365
5.582,0.33
5.584,0.28
5.586,0.215
5.588,0.145
5.59,0.07
5.592,-0.005
5.594,-0.075
5.596,-0.14
5.598,-0.19
5.6,-0.23
5.602,-0.26
5.604,-0.27
5.606,-0.265
5.608,-0.25
5.61,-0.23
5.612,-0.2
5.614,-0.165
5.616,-0.14
5.618,-0.115
5.62,-0.095
5.622,-0.085
5.624,-0.075
5.626,-0.07
5.628,-0.065
5.63,-0.06
5.632,-0.05
5.634,-0.045
5.636,-0.035
5.638,-0.025
5.64,-0.02
5.642,-0.015
5.644,-0.015
5.646,-0.02
5.648,-0.03
5.65,-0.035
5.652,-0.035
5.654,-0.03
5.656,-0.025
5.658,-0.01
5.66,0.005
5.662,0.025
5.664,0.035
5.666,0.045
5.668,0.045
5.67,0.04
5.672,0.025
5.674,0.005
5.676,-0.015
5.678,-0.03
5.68,-0.04
5.682,-0.045
5.684,-0.04
5.686,-0.025
5.688,-0.01
5.69,0.01
5.692,0.02
5.694,0.03
5.696,0.03
5.698,0.02
5.7,0.01
5.702,0
5.704,-0.005
5.706,-0.01
5.708,-0.01
5.71,0
5.712,0.01
5.714,0.02
5.716,0.035
5.718,0.04
5.72,0.045
5.722,0.045
5.724,0.045
5.726,0.04
5.728,0.035
5.73,0.035
5.732,0.03
5.734,0.03
5.736,0.035
5.738,0.035
5.74,0.035
5.742,0.03
5.744,0.03
5.746,0.035
5.748,0.04
5.75,0.045
5.752,0.055
5.754,0.065
5.756,0.075
5.758,0.08
5.76,0.08
5.762,0.08
5.764,0.075
5.766,0.065
5.768,0.06
5.77,0.055
5.772,0.055
5.774,0.06
5.776,0.07
5.778,0.085
5.78,0.105
5.782,0.12
5.784,0.135
5.786,0.145
5.788,0.15
5.79,0.15
5.792,0.15
5.794,0.15
5.796,0.15
5.798,0.15
5.8,0.15
5.802,0.155
5.804,0.165
5.806,0.17
5.808,0.175
5.81,0.18
5.812,0.185
5.814,0.19
5.816,0.19
5.818,0.195
5.82,0.2
5.822,0.2
5.824,0.2
5.826,0.195
5.828,0.19
5.83,0.18
5.832,0.17
5.834,0.155
5.836,0.145
5.838,0.135
5.84,0.125
5.842,0.12
5.844,0.12
5.846,0.115
5.848,0.115
5.85,0.11
5.852,0.1
5.854,0.09
5.856,0.075
5.858,0.06
5.86,0.05
5.862,0.035
5.864,0.03
5.866,0.025
5.868,0.025
5.87,0.025
5.872,0.025
5.874,0.025
5.876,0.025
5.878,0.02
5.88,0.01
5.882,0
5.884,-0.01
5.886,-0.025
5.888,-0.035
5.89,-0.04
5.892,-0.04
5.894,-0.04
5.896,-0.04
5.898,-0.035
5.9,-0.03
5.902,-0.025
5.904,-0.02
5.906,-0.02
5.908,-0.02
5.91,-0.02
5.912,-0.025
5.914,-0.025
5.916,-0.03
5.918,-0.035
5.92,-0.035
5.922,-0.04
5.924,-0.04
5.926,-0.04
5.928,-0.045
5.93,-0.05
5.932,-0.055
5.934,-0.055
5.936,-0.06
5.938,-0.06
5.94,-0.06
5.942,-0.05
5.944,-0.04
5.946,-0.03
5.948,-0.025
5.95,-0.015
5.952,-0.015
5.954,-0.02
5.956,-0.025
5.958,-0.035
5.96,-0.045
5.962,-0.055
5.964,-0.055
5.966,-0.055
5.968,-0.05
5.97,-0.04
5.972,-0.025
5.974,-0.02
5.976,-0.01
5.978,-0.01
5.98,-0.015
5.982,-0.02
5.984,-0.03
5.986,-0.035
5.988,-0.04
5.99,-0.04
5.992,-0.04
5.994,-0.035
5.996,-0.035
5.998,-0.03
6,-0.025
6.002,-0.025
6.004,-0.025
6.006,-0.025
6.008,-0.025
6.01,-0.025
6.012,-0.02
6.014,-0.015
6.016,-0.01
6.018,-0.005
6.02,0
6.022,0.005
6.024,0
6.026,0
6.028,-0.01
6.03,-0.015
6.032,-0.02
6.034,-0.025
6.036,-0.025
6.038,-0.025
6.04,-0.025
6.042,-0.02
6.044,-0.015
6.046,-0.01
6.048,-0.015
6.05,-0.015
6.052,-0.025
6.054,-0.03
6.056,-0.04
6.058,-0.045
6.06,-0.045
6.062,-0.045
6.064,-0.04
6.066,-0.03
6.068,-0.025
6.07,-0.02
6.072,-0.015
6.074,-0.015
6.076,-0.02
6.078,-0.025
6.08,-0.025
6.082,-0.03
6.084,-0.03
6.086,-0.025
6.088,-0.02
6.09,-0.015
6.092,-0.01
6.094,-0.01
6.096,-0.01
6.098,-0.015
6.1,-0.02
6.102,-0.025
6.104,-0.03
6.106,-0.03
6.108,-0.035
6.11,-0.035
6.112,-0.03
6.114,-0.03
6.116,-0.03
6.118,-0.03
6.12,-0.03
6.122,-0.035
6.124,-0.04
6.126,-0.045
6.128,-0.045
6.13,-0.05
6.132,-0.05
6.134,-0.045
6.136,-0.045
6.138,-0.04
6.14,-0.035
6.142,-0.035
6.144,-0.03
6.146,-0.03
6.148,-0.035
6.15,-0.035
6.152,-0.04
6.154,-0.04
6.156,-0.045
6.158,-0.04
6.16,-0.04
6.162,-0.04
6.164,-0.035
6.166,-0.03
6.168,-0.03
6.17,-0.03
6.172,-0.03
6.174,-0.035
6.176,-0.035
6.178,-0.04
6.18,-0.04
6.182,-0.045
6.184,-0.04
6.186,-0.04
6.188,-0.04
6.19,-0.04
6.192,-0.04
6.194,-0.04
6.196,-0.045
6.198,-0.045
6.2,-0.05
6.202,-0.05
6.204,-0.05
6.206,-0.05
6.208,-0.045
6.21,-0.04
6.212,-0.03
6.214,-0.025
6.216,-0.02
6.218,-0.02
6.22,-0.02
6.222,-0.02
6.224,-0.025
6.226,-0.03
6.228,-0.035
6.23,-0.035
6.232,-0.035
6.234,-0.035
6.236,-0.03
6.238,-0.025
6.24,-0.015
6.242,-0.01
6.244,-0.01
6.246,-0.01
6.248,-0.015
6.25,-0.025
6.252,-0.035
6.254,-0.045
6.256,-0.055
6.258,-0.06
6.26,-0.055
6.262,-0.05
6.264,-0.035
6.266,-0.015
6.268,0
6.27,0.015
6.272,0.03
6.274,0.035
6.276,0.03
6.278,0.025
6.28,0.015
6.282,0
6.284,-0.01
6.286,-0.015
6.288,-0.015
6.29,-0.01
6.292,0
6.294,0.01
6.296,0.015
6.298,0.02
6.3,0.015
6.302,0.01
6.304,0
6.306,-0.015
6.308,-0.025
6.31,-0.035
6.312,-0.045
6.314,-0.045
6.316,-0.045
6.318,-0.04
6.32,-0.035
6.322,-0.03
6.324,-0.03
6.326,-0.03
6.328,-0.035
6.33,-0.04
6.332,-0.05
6.334,-0.06
6.336,-0.065
6.338,-0.075
6.34,-0.08
6.342,-0.08
6.344,-0.08
6.346,-0.08
6.348,-0.075
6.35,-0.07
6.352,-0.065
6.354,-0.055
6.356,-0.05
6.358,-0.04
6.36,-0.035
6.362,-0.03
6.364,-0.025
6.366,-0.025
6.368,-0.03
6.37,-0.035
6.372,-0.045
6.374,-0.055
6.376,-0.065
6.378,-0.075
6.38,-0.075
6.382,-0.06
6.384,-0.035
6.386,0.005
6.388,0.06
6.39,0.125
6.392,0.195
6.394,0.265
6.396,0.32
6.398,0.355
6.4,0.365
6.402,0.35
6.404,0.305
6.406,0.235
6.408,0.15
6.41,0.055
6.412,-0.04
6.414,-0.125
6.416,-0.195
6.418,-0.245
6.42,-0.28
6.422,-0.29
6.424,-0.29
6.426,-0.275
6.428,-0.255
6.43,-0.235
6.432,-0.21
6.434,-0.19
6.436,-0.17
6.438,-0.155
6.44,-0.14
6.442,-0.125
6.444,-0.11
6.446,-0.1
6.448,-0.085
6.45,-0.075
6.452,-0.065
6.454,-0.06
6.456,-0.05
6.458,-0.045
6.46,-0.04
6.462,-0.04
6.464,-0.035
6.466,-0.03
6.468,-0.03
6.47,-0.03
6.472,-0.03
6.474,-0.03
6.476,-0.035
6.478,-0.035
6.48,-0.035
6.482,-0.03
6.484,-0.025
6.486,-0.02
6.488,-0.01
6.49,0
6.492,0.01
6.494,0.015
6.496,0.02
6.498,0.02
6.5,0.015
6.502,0.01
6.504,0
6.506,-0.005
6.508,-0.01
6.51,-0.015
6.512,-0.015
6.514,-0.015
6.516,-0.01
6.518,-0.01
6.52,-0.01
6.522,-0.01
6.524,-0.01
6.526,-0.01
6.528,-0.005
6.53,0.005
6.532,0.015
6.534,0.03
6.536,0.04
6.538,0.05
6.54,0.055
6.542,0.055
6.544,0.05
6.546,0.035
6.548,0.02
6.55,0.005
6.552,-0.01
6.554,-0.015
6.556,-0.015
6.558,-0.005
6.56,0.005
6.562,0.02
6.564,0.035
6.566,0.04
6.568,0.045
6.57,0.045
6.572,0.045
6.574,0.04
6.576,0.035
6.578,0.035
6.58,0.04
6.582,0.045
6.584,0.05
6.586,0.06
6.588,0.065
6.59,0.07
6.592,0.07
6.594,0.07
6.596,0.075
6.598,0.075
6.6,0.08
6.602,0.09
6.604,0.1
6.606,0.11
6.608,0.12
6.61,0.125
6.612,0.13
6.614,0.135
6.616,0.14
6.618,0.145
6.62,0.155
6.622,0.165
6.624,0.175
6.626,0.19
6.628,0.2
6.63,0.21
6.632,0.215
6.634,0.215
6.636,0.21
6.638,0.2
6.64,0.195
6.642,0.185
6.644,0.185
6.646,0.185
6.648,0.185
6.65,0.19
6.652,0.195
6.654,0.195
6.656,0.195
6.658,0.185
6.66,0.175
6.662,0.16
6.664,0.145
6.666,0.13
6.668,0.115
6.67,0.1
6.672,0.09
6.674,0.08
6.676,0.07
6.678,0.06
6.68,0.05
6.682,0.045
6.684,0.035
6.686,0.025
6.688,0.02
6.69,0.015
6.692,0.01
6.694,0.005
6.696,0
6.698,0
6.7,-0.005
6.702,-0.01
6.704,-0.01
6.706,-0.015
6.708,-0.02
6.71,-0.02
6.712,-0.025
6.714,-0.03
6.716,-0.03
6.718,-0.03
6.72,-0.025
6.722,-0.02
6.724,-0.015
6.726,-0.01
6.728,-0.005
6.73,0
6.732,0
6.734,-0.005
6.736,-0.01
6.738,-0.02
6.74,-0.03
6.742,-0.035
6.744,-0.045
6.746,-0.055
6.748,-0.06
6.75,-0.065
6.752,-0.065
6.754,-0.065
6.756,-0.07
6.758,-0.065
6.76,-0.065
6.762,-0.06
6.764,-0.05
6.766,-0.045
6.768,-0.035
6.77,-0.03
6.772,-0.025
6.774,-0.025
6.776,-0.025
6.778,-0.025
6.78,-0.025
6.782,-0.03
6.784,-0.025
6.786,-0.025
6.788,-0.015
6.79,-0.01
6.792,0
6.794,0.01
6.796,0.015
6.798,0.015
6.8,0.015
6.802,0.01
6.804,0
6.806,-0.005
6.808,-0.01
6.81,-0.015
6.812,-0.02
6.814,-0.02
6.816,-0.025
6.818,-0.025
6.82,-0.03
6.822,-0.035
6.824,-0.045
6.826,-0.05
6.828,-0.055
6.83,-0.055
6.832,-0.05
6.834,-0.045
6.836,-0.03
6.838,-0.02
6.84,-0.01
6.842,0
6.844,0.01
6.846,0.01
6.848,0.01
6.85,0.01
6.852,0.01
6.854,0.005
6.856,0.005
6.858,0.005
6.86,0.005
6.862,0.01
6.864,0.01
6.866,0.01
6.868,0.005
6.87,0.005
6.872,0
6.874,-0.01
6.876,-0.01
6.878,-0.015
6.88,-0.02
6.882,-0.02
6.884,-0.02
6.886,-0.02
6.888,-0.02
6.89,-0.02
6.892,-0.02
6.894,-0.02
6.896,-0.02
6.898,-0.015
6.9,-0.01
6.902,-0.005
6.904,0
6.906,0
6.908,0
6.91,0
6.912,-0.005
6.914,-0.01
6.916,-0.01
6.918,-0.015
6.92,-0.015
6.922,-0.015
6.924,-0.015
6.926,-0.01
6.928,-0.005
6.93,-0.005
6.932,0
6.934,0
6.936,-0.005
6.938,-0.005
6.94,-0.01
6.942,-0.02
6.944,-0.025
6.946,-0.03
6.948,-0.04
6.95,-0.045
6.952,-0.055
6.954,-0.055
6.956,-0.055
6.958,-0.055
6.96,-0.05
6.962,-0.04
6.964,-0.03
6.966,-0.025
6.968,-0.02
6.97,-0.025
6.972,-0.03
6.974,-0.035
6.976,-0.045
6.978,-0.055
6.98,-0.06
6.982,-0.06
6.984,-0.06
6.986,-0.05
6.988,-0.045
6.99,-0.035
6.992,-0.025
6.994,-0.02
6.996,-0.015
6.998,-0.015
7,-0.015
7.002,-0.02
7.004,-0.02
7.006,-0.02
7.008,-0.02
7.01,-0.02
7.012,-0.015
7.014,-0.015
7.016,-0.015
7.018,-0.015
7.02,-0.025
7.022,-0.03
7.024,-0.035
7.026,-0.045
7.028,-0.05
7.03,-0.05
7.032,-0.05
7.034,-0.045
7.036,-0.045
7.038,-0.04
7.04,-0.035
7.042,-0.03
7.044,-0.025
7.046,-0.025
7.048,-0.025
7.05,-0.025
7.052,-0.025
7.054,-0.025
7.056,-0.025
7.058,-0.02
7.06,-0.02
7.062,-0.02
7.064,-0.02
7.066,-0.015
7.068,-0.015
7.07,-0.01
7.072,-0.005
7.074,0.005
7.076,0.01
7.078,0.02
7.08,0.025
7.082,0.025
7.084,0.025
7.086,0.015
7.088,0.005
7.09,-0.005
7.092,-0.01
7.094,-0.02
7.096,-0.02
7.098,-0.015
7.1,-0.005
7.102,0.01
7.104,0.02
7.106,0.03
7.108,0.035
7.11,0.03
7.112,0.025
7.114,0.015
7.116,0.005
7.118,-0.005
7.12,-0.015
7.122,-0.02
7.124,-0.025
7.126,-0.025
7.128,-0.025
7.13,-0.025
7.132,-0.025
7.134,-0.025
7.136,-0.03
7.138,-0.03
7.14,-0.03
7.142,-0.025
7.144,-0.025
7.146,-0.02
7.148,-0.015
7.15,-0.015
7.152,-0.02
7.154,-0.025
7.156,-0.03
7.158,-0.04
7.16,-0.05
7.162,-0.06
7.164,-0.065
7.166,-0.065
7.168,-0.065
7.17,-0.06
7.172,-0.06
7.174,-0.055
7.176,-0.055
7.178,-0.055
7.18,-0.06
7.182,-0.065
7.184,-0.075
7.186,-0.085
7.188,-0.095
7.19,-0.1
7.192,-0.105
7.194,-0.1
7.196,-0.09
7.198,-0.07
7.2,-0.03
7.202,0.015
7.204,0.08
7.206,0.145
7.208,0.215
7.21,0.285
7.212,0.335
7.214,0.375
7.216,0.385
7.218,0.37
7.22,0.335
7.222,0.27
7.224,0.195
7.226,0.11
7.228,0.02
7.23,-0.06
7.232,-0.13
7.234,-0.185
7.236,-0.225
7.238,-0.25
7.24,-0.26
7.242,-0.26
7.244,-0.25
7.246,-0.235
7.248,-0.22
7.25,-0.2
7.252,-0.18
7.254,-0.16
7.256,-0.135
7.258,-0.115
7.26,-0.095
7.262,-0.075
7.264,-0.06
7.266,-0.045
7.268,-0.03
7.27,-0.02
7.272,-0.01
7.274,-0.01
7.276,-0.01
7.278,-0.01
7.28,-0.015
7.282,-0.025
7.284,-0.035
7.286,-0.045
7.288,-0.05
7.29,-0.055
7.292,-0.055
7.294,-0.05
7.296,-0.04
7.298,-0.03
7.3,-0.02
7.302,-0.01
7.304,-0.005
7.306,0
7.308,-0.005
7.31,-0.005
7.312,-0.01
7.314,-0.01
7.316,-0.005
7.318,0.005
7.32,0.01
7.322,0.02
7.324,0.03
7.326,0.035
7.328,0.03
7.33,0.025
7.332,0.015
7.334,0
7.336,-0.01
7.338,-0.015
7.34,-0.015
7.342,-0.01
7.344,0
7.346,0.01
7.348,0.025
7.35,0.03
7.352,0.035
7.354,0.035
7.356,0.025
7.358,0.02
7.36,0.01
7.362,0.005
7.364,0.005
7.366,0.01
7.368,0.015
7.37,0.025
7.372,0.03
7.374,0.04
7.376,0.045
7.378,0.045
7.38,0.045
7.382,0.05
7.384,0.05
7.386,0.055
7.388,0.06
7.39,0.065
7.392,0.07
7.394,0.07
7.396,0.07
7.398,0.07
7.4,0.065
7.402,0.06
7.404,0.06
7.406,0.055
7.408,0.06
7.41,0.065
7.412,0.07
7.414,0.08
7.416,0.09
7.418,0.095
7.42,0.105
7.422,0.11
7.424,0.115
7.426,0.12
7.428,0.125
7.43,0.13
7.432,0.14
7.434,0.145
7.436,0.155
7.438,0.16
7.44,0.165
7.442,0.17
7.444,0.17
7.446,0.175
7.448,0.18
7.45,0.185
7.452,0.19
7.454,0.195
7.456,0.205
7.458,0.205
7.46,0.21
7.462,0.205
7.464,0.2
7.466,0.19
7.468,0.18
7.47,0.175
7.472,0.165
7.474,0.155
7.476,0.15
7.478,0.145
7.48,0.135
7.482,0.125
7.484,0.115
7.486,0.1
7.488,0.085
7.49,0.075
7.492,0.065
7.494,0.06
7.496,0.055
7.498,0.055
7.5,0.06
7.502,0.055
7.504,0.05
7.506,0.04
7.508,0.025
7.51,0.005
7.512,-0.01
7.514,-0.02
7.516,-0.025
7.518,-0.03
7.52,-0.025
7.522,-0.015
7.524,-0.01
7.526,-0.01
7.528,-0.015
7.53,-0.02
7.532,-0.035
7.534,-0.05
7.536,-0.06
7.538,-0.065
7.54,-0.065
7.542,-0.065
7.544,-0.055
7.546,-0.045
7.548,-0.04
7.55,-0.035
7.552,-0.04
7.554,-0.045
7.556,-0.055
7.558,-0.065
7.56,-0.07
7.562,-0.075
7.564,-0.07
7.566,-0.06
7.568,-0.045
7.57,-0.03
7.572,-0.02
7.574,-0.01
7.576,-0.01
7.578,-0.01
7.58,-0.015
7.582,-0.025
7.584,-0.03
7.586,-0.035
7.588,-0.035
7.59,-0.04
7.592,-0.04
7.594,-0.04
7.596,-0.045
7.598,-0.05
7.6,-0.055
7.602,-0.055
7.604,-0.06
7.606,-0.06
7.608,-0.06
7.61,-0.055
7.612,-0.05
7.614,-0.045
7.616,-0.04
7.618,-0.035
7.62,-0.035
7.622,-0.035
7.624,-0.035
7.626,-0.035
7.628,-0.03
7.63,-0.03
7.632,-0.025
7.634,-0.02
7.636,-0.015
7.638,-0.015
7.64,-0.015
7.642,-0.015
7.644,-0.02
7.646,-0.025
7.648,-0.025
7.65,-0.03
7.652,-0.035
7.654,-0.035
7.656,-0.04
7.658,-0.04
7.66,-0.045
7.662,-0.045
7.664,-0.045
7.666,-0.045
7.668,-0.045
7.67,-0.04
7.672,-0.035
7.674,-0.03
7.676,-0.02
7.678,-0.015
7.68,-0.01
7.682,-0.01
7.684,-0.01
7.686,-0.015
7.688,-0.015
7.69,-0.02
7.692,-0.02
7.694,-0.02
7.696,-0.02
7.698,-0.015
7.7,-0.01
7.702,-0.005
7.704,-0.005
7.706,-0.01
7.708,-0.015
7.71,-0.02
7.712,-0.03
7.714,-0.035
7.716,-0.04
7.718,-0.045
7.72,-0.045
7.722,-0.045
7.724,-0.045
7.726,-0.04
7.728,-0.035
7.73,-0.03
7.732,-0.03
7.734,-0.03
7.736,-0.03
7.738,-0.03
7.74,-0.035
7.742,-0.04
7.744,-0.045
7.746,-0.045
7.748,-0.045
7.75,-0.04
7.752,-0.04
7.754,-0.035
7.756,-0.03
7.758,-0.025
7.76,-0.025
7.762,-0.02
7.764,-0.02
7.766,-0.02
7.768,-0.02
7.77,-0.02
7.772,-0.015
7.774,-0.015
7.776,-0.01
7.778,-0.01
7.78,-0.01
7.782,-0.01
7.784,-0.015
7.786,-0.02
7.788,-0.03
7.79,-0.035
7.792,-0.045
7.794,-0.05
7.796,-0.05
7.798,-0.045
7.8,-0.04
7.802,-0.03
7.804,-0.025
7.806,-0.015
7.808,-0.015
7.81,-0.015
7.812,-0.02
7.814,-0.025
7.816,-0.03
7.818,-0.035
7.82,-0.035
7.822,-0.035
7.824,-0.03
7.826,-0.025
7.828,-0.02
7.83,-0.02
7.832,-0.02
7.834,-0.025
7.836,-0.03
7.838,-0.035
7.84,-0.04
7.842,-0.04
7.844,-0.04
7.846,-0.035
7.848,-0.03
7.85,-0.025
7.852,-0.02
7.854,-0.025
7.856,-0.03
7.858,-0.04
7.86,-0.055
7.862,-0.065
7.864,-0.08
7.866,-0.085
7.868,-0.085
7.87,-0.075
7.872,-0.065
7.874,-0.05
7.876,-0.04
7.878,-0.025
7.88,-0.02
7.882,-0.015
7.884,-0.015
7.886,-0.015
7.888,-0.015
7.89,-0.02
7.892,-0.02
7.894,-0.02
7.896,-0.015
7.898,-0.015
7.9,-0.02
7.902,-0.02
7.904,-0.025
7.906,-0.03
7.908,-0.035
7.91,-0.035
7.912,-0.03
7.914,-0.02
7.916,-0.01
7.918,0
7.92,0.01
7.922,0.02
7.924,0.02
7.926,0.02
7.928,0.015
7.93,0.005
7.932,0
7.934,-0.005
7.936,-0.005
7.938,-0.005
7.94,-0.005
7.942,-0.005
7.944,-0.005
7.946,-0.005
7.948,-0.015
7.95,-0.025
7.952,-0.035
7.954,-0.045
7.956,-0.05
7.958,-0.055
7.96,-0.05
7.962,-0.045
7.964,-0.04
7.966,-0.03
7.968,-0.025
7.97,-0.02
7.972,-0.025
7.974,-0.03
7.976,-0.04
7.978,-0.05
7.98,-0.06
7.982,-0.07
7.984,-0.075
7.986,-0.08
7.988,-0.08
7.99,-0.08
7.992,-0.075
7.994,-0.075
7.996,-0.07
7.998,-0.065
8,-0.06
8.002,-0.055
8.004,-0.05
8.006,-0.05
8.008,-0.05
8.01,-0.055
8.012,-0.06
8.014,-0.065
8.016,-0.07
8.018,-0.075
8.02,-0.07
8.022,-0.06
8.024,-0.04
8.026,0
8.028,0.045
8.03,0.105
8.032,0.17
8.034,0.235
8.036,0.29
8.038,0.34
8.04,0.365
8.042,0.37
8.044,0.35
8.046,0.3
8.048,0.23
8.05,0.145
8.052,0.055
8.054,-0.04
8.056,-0.125
8.058,-0.2
8.06,-0.25
8.062,-0.28
8.064,-0.285
8.066,-0.28
8.068,-0.255
8.07,-0.23
8.072,-0.2
8.074,-0.175
8.076,-0.155
8.078,-0.14
8.08,-0.13
8.082,-0.12
8.084,-0.115
8.086,-0.105
8.088,-0.095
8.09,-0.085
8.092,-0.07
8.094,-0.06
8.096,-0.05
8.098,-0.04
8.1,-0.04
8.102,-0.035
8.104,-0.035
8.106,-0.03
8.108,-0.025
8.11,-0.02
8.112,-0.015
8.114,-0.005
8.116,0
8.118,0.005
8.12,0.005
8.122,0.005
8.124,0
8.126,-0.01
8.128,-0.02
8.13,-0.025
8.132,-0.035
8.134,-0.04
8.136,-0.04
8.138,-0.04
8.14,-0.035
8.142,-0.025
8.144,-0.015
8.146,-0.005
8.148,0.005
8.15,0.015
8.152,0.02
8.154,0.025
8.156,0.025
8.158,0.02
8.16,0.01
8.162,0.005
8.164,-0.005
8.166,-0.01
8.168,-0.015
8.17,-0.015
8.172,-0.015
8.174,-0.005
8.176,0
8.178,0.01
8.18,0.02
8.182,0.03
8.184,0.035
8.186,0.035
8.188,0.03
8.19,0.025
8.192,0.02
8.194,0.015
8.196,0.01
8.198,0.01
8.2,0.015
8.202,0.02
8.204,0.03
8.206,0.04
8.208,0.05
8.21,0.055
8.212,0.06
8.214,0.06
8.216,0.06
8.218,0.055
8.22,0.055
8.222,0.055
8.224,0.06
8.226,0.065
8.228,0.08
8.23,0.09
8.232,0.11
8.234,0.125
8.236,0.135
8.238,0.145
8.24,0.15
8.242,0.15
8.244,0.15
8.246,0.145
8.248,0.14
8.25,0.14
8.252,0.135
8.254,0.135
8.256,0.135
8.258,0.135
8.26,0.14
8.262,0.15
8.264,0.155
8.266,0.165
8.268,0.18
8.27,0.19
8.272,0.195
8.274,0.205
8.276,0.205
8.278,0.205
8.28,0.205
8.282,0.195
8.284,0.19
8.286,0.185
8.288,0.18
8.29,0.18
8.292,0.18
8.294,0.18
8.296,0.185
8.298,0.185
8.3,0.18
8.302,0.175
8.304,0.165
8.306,0.155
8.308,0.145
8.31,0.13
8.312,0.12
8.314,0.11
8.316,0.095
8.318,0.085
8.32,0.075
8.322,0.07
8.324,0.06
8.326,0.05
8.328,0.04
8.33,0.035
8.332,0.03
8.334,0.025
8.336,0.025
8.338,0.02
8.34,0.015
8.342,0.01
8.344,0
8.346,-0.01
8.348,-0.02
8.35,-0.03
8.352,-0.035
8.354,-0.04
8.356,-0.035
8.358,-0.03
8.36,-0.02
8.362,-0.005
8.364,0.005
8.366,0.005
8.368,0.005
8.37,0
8.372,-0.015
8.374,-0.035
8.376,-0.05
8.378,-0.065
8.38,-0.075
8.382,-0.075
8.384,-0.065
8.386,-0.055
8.388,-0.035
8.39,-0.02
8.392,-0.005
8.394,0
8.396,0
8.398,-0.01
8.4,-0.02
8.402,-0.035
8.404,-0.05
8.406,-0.06
8.408,-0.065
8.41,-0.065
8.412,-0.06
8.414,-0.05
8.416,-0.04
8.418,-0.035
8.42,-0.03
8.422,-0.025
8.424,-0.025
8.426,-0.02
8.428,-0.02
8.43,-0.015
8.432,-0.015
8.434,-0.01
8.436,-0.01
8.438,-0.01
8.44,-0.015
8.442,-0.025
8.444,-0.03
8.446,-0.04
8.448,-0.045
8.45,-0.05
8.452,-0.045
8.454,-0.04
8.456,-0.03
8.458,-0.025
8.46,-0.015
8.462,-0.015
8.464,-0.015
8.466,-0.015
8.468,-0.02
8.47,-0.025
8.472,-0.025
8.474,-0.025
8.476,-0.02
8.478,-0.015
8.48,-0.01
8.482,-0.005
8.484,-0.005
8.486,-0.005
8.488,-0.005
8.49,-0.005
8.492,-0.005
8.494,-0.005
8.496,-0.005
8.498,0
8.5,0.01
8.502,0.01
8.504,0.015
8.506,0.01
8.508,0.005
8.51,0
8.512,-0.01
8.514,-0.02
8.516,-0.03
8.518,-0.035
8.52,-0.04
8.522,-0.04
8.524,-0.035
8.526,-0.03
8.528,-0.025
8.53,-0.02
8.532,-0.015
8.534,-0.01
8.536,-0.005
8.538,-0.005
8.54,-0.005
8.542,-0.005
8.544,-0.01
8.546,-0.015
8.548,-0.015
8.55,-0.02
8.552,-0.025
8.554,-0.025
8.556,-0.025
8.558,-0.025
8.56,-0.02
8.562,-0.02
8.564,-0.015
8.566,-0.01
8.568,-0.01
8.57,-0.005
8.572,-0.005
8.574,-0.005
8.576,-0.01
8.578,-0.01
8.58,-0.015
8.582,-0.015
8.584,-0.02
8.586,-0.02
8.588,-0.02
8.59,-0.025
8.592,-0.025
8.594,-0.03
8.596,-0.035
8.598,-0.04
8.6,-0.04
8.602,-0.045
8.604,-0.05
8.606,-0.05
8.608,-0.05
8.61,-0.045
8.612,-0.045
8.614,-0.045
8.616,-0.04
8.618,-0.04
8.62,-0.04
8.622,-0.035
8.624,-0.035
8.626,-0.035
8.628,-0.03
8.63,-0.03
8.632,-0.025
8.634,-0.025
8.636,-0.025
8.638,-0.025
8.64,-0.025
8.642,-0.03
8.644,-0.03
8.646,-0.035
8.648,-0.035
8.65,-0.03
8.652,-0.03
8.654,-0.025
8.656,-0.025
8.658,-0.025
8.66,-0.025
8.662,-0.025
8.664,-0.03
8.666,-0.035
8.668,-0.04
8.67,-0.045
8.672,-0.045
8.674,-0.05
8.676,-0.05
8.678,-0.05
8.68,-0.05
8.682,-0.05
8.684,-0.05
8.686,-0.05
8.688,-0.05
8.69,-0.05
8.692,-0.045
8.694,-0.045
8.696,-0.04
8.698,-0.04
8.7,-0.045
8.702,-0.045
8.704,-0.05
8.706,-0.055
8.708,-0.06
8.71,-0.06
8.712,-0.06
8.714,-0.055
8.716,-0.045
8.718,-0.035
8.72,-0.025
8.722,-0.015
8.724,-0.01
8.726,-0.005
8.728,-0.005
8.73,-0.005
8.732,-0.01
8.734,-0.02
8.736,-0.025
8.738,-0.025
8.74,-0.03
8.742,-0.03
8.744,-0.03
8.746,-0.025
8.748,-0.025
8.75,-0.02
8.752,-0.02
8.754,-0.015
8.756,-0.015
8.758,-0.015
8.76,-0.015
8.762,-0.015
8.764,-0.015
8.766,-0.015
8.768,-0.02
8.77,-0.02
8.772,-0.02
8.774,-0.02
8.776,-0.015
8.778,-0.01
8.78,-0.005
8.782,0
8.784,0.005
8.786,0.01
8.788,0.01
8.79,0.01
8.792,0.005
8.794,0
8.796,-0.005
8.798,-0.005
8.8,-0.01
8.802,-0.01
8.804,-0.01
8.806,-0.01
8.808,-0.01
8.81,-0.01
8.812,-0.015
8.814,-0.02
8.816,-0.03
8.818,-0.04
8.82,-0.05
8.822,-0.06
8.824,-0.065
8.826,-0.065
8.828,-0.06
8.83,-0.05
8.832,-0.04
8.834,-0.03
8.836,-0.015
8.838,-0.01
8.84,-0.005
8.842,-0.005
8.844,-0.01
8.846,-0.015
8.848,-0.02
8.85,-0.025
8.852,-0.03
8.854,-0.03
8.856,-0.035
8.858,-0.04
8.86,-0.04
8.862,-0.045
8.864,-0.045
8.866,-0.05
8.868,-0.055
8.87,-0.06
8.872,-0.06
8.874,-0.06
8.876,-0.06
8.878,-0.06
8.88,-0.06
8.882,-0.06
8.884,-0.06
8.886,-0.065
8.888,-0.07
8.89,-0.065
8.892,-0.06
8.894,-0.04
8.896,-0.005
8.898,0.04
8.9,0.095
8.902,0.16
8.904,0.225
8.906,0.285
8.908,0.335
8.91,0.36
8.912,0.365
8.914,0.345
8.916,0.3
8.918,0.235
8.92,0.16
8.922,0.075
8.924,-0.01
8.926,-0.09
8.928,-0.15
8.93,-0.2
8.932,-0.23
8.934,-0.245
8.936,-0.245
8.938,-0.23
8.94,-0.21
8.942,-0.185
8.944,-0.155
8.946,-0.135
8.948,-0.11
8.95,-0.095
8.952,-0.085
8.954,-0.075
8.956,-0.07
8.958,-0.065
8.96,-0.06
8.962,-0.05
8.964,-0.04
8.966,-0.025
8.968,-0.015
8.97,-0.005
8.972,0
8.974,0
8.976,0
8.978,0
8.98,-0.005
8.982,-0.01
8.984,-0.015
8.986,-0.015
8.988,-0.01
8.99,-0.005
8.992,-0.005
8.994,0
8.996,0
8.998,0
9,-0.005
9.002,-0.005
9.004,-0.01
9.006,-0.01
9.008,-0.01
9.01,-0.005
9.012,-0.005
9.014,-0.005
9.016,0
9.018,0
9.02,0
9.022,0
9.024,0
9.026,0.005
9.028,0.01
9.03,0.015
9.032,0.02
9.034,0.02
9.036,0.02
9.038,0.02
9.04,0.01
9.042,0.005
9.044,-0.005
9.046,-0.01
9.048,-0.01
9.05,-0.005
9.052,0.005
9.054,0.015
9.056,0.025
9.058,0.035
9.06,0.04
9.062,0.04
9.064,0.035
9.066,0.03
9.068,0.025
9.07,0.02
9.072,0.02
9.074,0.025
9.076,0.03
9.078,0.035
9.08,0.04
9.082,0.045
9.084,0.045
9.086,0.045
9.088,0.045
9.09,0.045
9.092,0.045
9.094,0.055
9.096,0.065
9.098,0.08
9.1,0.1
9.102,0.12
9.104,0.135
9.106,0.145
9.108,0.15
9.11,0.15
9.112,0.145
9.114,0.145
9.116,0.14
9.118,0.135
9.12,0.135
9.122,0.14
9.124,0.14
9.126,0.14
9.128,0.145
9.13,0.15
9.132,0.15
9.134,0.155
9.136,0.165
9.138,0.17
9.14,0.18
9.142,0.19
9.144,0.19
9.146,0.19
9.148,0.185
9.15,0.175
9.152,0.16
9.154,0.15
9.156,0.14
9.158,0.14
9.16,0.145
9.162,0.155
9.164,0.17
9.166,0.185
9.168,0.195
9.17,0.2
9.172,0.195
9.174,0.185
9.176,0.165
9.178,0.145
9.18,0.12
9.182,0.105
9.184,0.09
9.186,0.08
9.188,0.075
9.19,0.075
9.192,0.075
9.194,0.07
9.196,0.06
9.198,0.045
9.2,0.025
9.202,0.005
9.204,-0.01
9.206,-0.025
9.208,-0.035
9.21,-0.035
9.212,-0.025
9.214,-0.015
9.216,0
9.218,0.015
9.22,0.025
9.222,0.025
9.224,0.02
9.226,0.01
9.228,-0.005
9.23,-0.02
9.232,-0.04
9.234,-0.05
9.236,-0.06
9.238,-0.06
9.24,-0.06
9.242,-0.05
9.244,-0.045
9.246,-0.035
9.248,-0.03
9.25,-0.025
9.252,-0.025
9.254,-0.025
9.256,-0.025
9.258,-0.025
9.26,-0.02
9.262,-0.02
9.264,-0.015
9.266,-0.01
9.268,-0.01
9.27,-0.01
9.272,-0.015
9.274,-0.02
9.276,-0.03
9.278,-0.04
9.28,-0.045
9.282,-0.05
9.284,-0.055
9.286,-0.055
9.288,-0.05
9.29,-0.05
9.292,-0.045
9.294,-0.045
9.296,-0.045
9.298,-0.045
9.3,-0.045
9.302,-0.045
9.304,-0.04
9.306,-0.035
9.308,-0.03
9.31,-0.02
9.312,-0.005
9.314,0
9.316,0.01
9.318,0.01
9.32,0.005
9.322,-0.005
9.324,-0.02
9.326,-0.035
9.328,-0.055
9.33,-0.065
9.332,-0.07
9.334,-0.07
9.336,-0.06
9.338,-0.045
9.34,-0.025
9.342,-0.005
9.344,0.01
9.346,0.025
9.348,0.03
9.35,0.03
9.352,0.02
9.354,0.01
9.356,0
9.358,-0.015
9.36,-0.02
9.362,-0.025
9.364,-0.025
9.366,-0.02
9.368,-0.015
9.37,-0.01
9.372,-0.005
9.374,0
9.376,0
9.378,-0.005
9.38,-0.005
9.382,-0.005
9.384,0
9.386,0
9.388,0.005
9.39,0.005
9.392,0.005
9.394,0
9.396,-0.005
9.398,-0.01
9.4,-0.02
9.402,-0.025
9.404,-0.025
9.406,-0.025
9.408,-0.025
9.41,-0.015
9.412,-0.01
9.414,-0.005
9.416,-0.005
9.418,-0.005
9.42,-0.01
9.422,-0.02
9.424,-0.025
9.426,-0.03
9.428,-0.03
9.43,-0.025
9.432,-0.02
9.434,-0.01
9.436,-0.005
9.438,0
9.44,0.005
9.442,0
9.444,-0.01
9.446,-0.025
9.448,-0.035
9.45,-0.05
9.452,-0.06
9.454,-0.07
9.456,-0.07
9.458,-0.065
9.46,-0.055
9.462,-0.045
9.464,-0.03
9.466,-0.02
9.468,-0.015
9.47,-0.01
9.472,-0.015
9.474,-0.02
9.476,-0.025
9.478,-0.03
9.48,-0.035
9.482,-0.04
9.484,-0.04
9.486,-0.04
9.488,-0.035
9.49,-0.035
9.492,-0.035
9.494,-0.035
9.496,-0.035
9.498,-0.035
9.5,-0.035
9.502,-0.04
9.504,-0.04
9.506,-0.04
9.508,-0.04
9.51,-0.04
9.512,-0.04
9.514,-0.045
9.516,-0.045
9.518,-0.05
9.52,-0.055
9.522,-0.055
9.524,-0.055
9.526,-0.055
9.528,-0.055
9.53,-0.05
9.532,-0.05
9.534,-0.045
9.536,-0.045
9.538,-0.045
9.54,-0.045
9.542,-0.045
9.544,-0.045
9.546,-0.05
9.548,-0.05
9.55,-0.05
9.552,-0.055
9.554,-0.06
9.556,-0.06
9.558,-0.065
9.56,-0.07
9.562,-0.07
9.564,-0.07
9.566,-0.065
9.568,-0.055
9.57,-0.05
9.572,-0.035
9.574,-0.025
9.576,-0.02
9.578,-0.015
9.58,-0.02
9.582,-0.03
9.584,-0.04
9.586,-0.055
9.588,-0.07
9.59,-0.08
9.592,-0.09
9.594,-0.09
9.596,-0.085
9.598,-0.075
9.6,-0.06
9.602,-0.05
9.604,-0.035
9.606,-0.025
9.608,-0.02
9.61,-0.015
9.612,-0.02
9.614,-0.03
9.616,-0.04
9.618,-0.05
9.62,-0.06
9.622,-0.07
9.624,-0.07
9.626,-0.07
9.628,-0.06
9.63,-0.05
9.632,-0.04
9.634,-0.025
9.636,-0.015
9.638,-0.005
9.64,0
9.642,0.005
9.644,0.005
9.646,0
9.648,-0.005
9.65,-0.015
9.652,-0.02
9.654,-0.02
9.656,-0.02
9.658,-0.015
9.66,-0.005
9.662,0
9.664,0
9.666,0
9.668,-0.005
9.67,-0.015
9.672,-0.03
9.674,-0.045
9.676,-0.06
9.678,-0.075
9.68,-0.08
9.682,-0.08
9.684,-0.075
9.686,-0.065
9.688,-0.05
9.69,-0.04
9.692,-0.025
9.694,-0.015
9.696,-0.01
9.698,-0.01
9.7,-0.01
9.702,-0.015
9.704,-0.02
9.706,-0.025
9.708,-0.025
9.71,-0.025
9.712,-0.02
9.714,-0.015
9.716,-0.015
9.718,-0.01
9.72,-0.01
9.722,-0.01
9.724,-0.01
9.726,-0.015
9.728,-0.02
9.73,-0.02
9.732,-0.025
9.734,-0.025
9.736,-0.025
9.738,-0.03
9.74,-0.035
9.742,-0.045
9.744,-0.055
9.746,-0.065
9.748,-0.07
9.75,-0.075
9.752,-0.08
9.754,-0.075
9.756,-0.075
9.758,-0.07
9.76,-0.065
9.762,-0.065
9.764,-0.07
9.766,-0.075
9.768,-0.08
9.77,-0.075
9.772,-0.055
9.774,-0.02
9.776,0.035
9.778,0.105
9.78,0.18
9.782,0.26
9.784,0.33
9.786,0.375
9.788,0.395
9.79,0.39
9.792,0.35
9.794,0.285
9.796,0.205
9.798,0.115
9.8,0.03
9.802,-0.055
9.804,-0.12
9.806,-0.18
9.808,-0.22
9.81,-0.245
9.812,-0.26
9.814,-0.265
9.816,-0.26
9.818,-0.245
9.82,-0.22
9.822,-0.195
9.824,-0.165
9.826,-0.14
9.828,-0.115
9.83,-0.1
9.832,-0.09
9.834,-0.085
9.836,-0.085
9.838,-0.085
9.84,-0.085
9.842,-0.075
9.844,-0.065
9.846,-0.05
9.848,-0.035
9.85,-0.02
9.852,-0.01
9.854,-0.005
9.856,-0.005
9.858,-0.01
9.86,-0.02
9.862,-0.03
9.864,-0.035
9.866,-0.04
9.868,-0.035
9.87,-0.03
9.872,-0.015
9.874,-0.005
9.876,0.005
9.878,0.015
9.88,0.02
9.882,0.025
9.884,0.025
9.886,0.02
9.888,0.015
9.89,0.01
9.892,0.005
9.894,0.005
9.896,0
9.898,0
9.9,0
9.902,0.005
9.904,0.01
9.906,0.015
9.908,0.015
9.91,0.02
9.912,0.025
9.914,0.03
9.916,0.03
9.918,0.03
9.92,0.03
9.922,0.025
9.924,0.025
9.926,0.025
9.928,0.025
9.93,0.025
9.932,0.025
9.934,0.025
9.936,0.03
9.938,0.03
9.94,0.035
9.942,0.035
9.944,0.04
9.946,0.04
9.948,0.045
9.95,0.05
9.952,0.055
9.954,0.055
9.956,0.06
9.958,0.065
9.96,0.07
9.962,0.07
9.964,0.07
9.966,0.07
9.968,0.07
9.97,0.07
9.972,0.075
9.974,0.08
9.976,0.085
9.978,0.09
9.98,0.1
9.982,0.105
9.984,0.105
9.986,0.11
9.988,0.11
9.99,0.105
9.992,0.105
9.994,0.105
9.996,0.11
9.998,0.12
