0,0.035
0.002,0.03
0.004,0.025
0.006,0.02
0.008,0.015
0.01,0.01
0.012,0.005
0.014,0.01
0.016,0.02
0.018,0.03
0.02,0.05
0.022,0.065
0.024,0.085
0.026,0.095
0.028,0.1
0.03,0.1
0.032,0.09
0.034,0.08
0.036,0.06
0.038,0.045
0.04,0.03
0.042,0.015
0.044,0.01
0.046,0.01
0.048,0.015
0.05,0.02
0.052,0.03
0.054,0.04
0.056,0.05
0.058,0.055
0.06,0.06
0.062,0.06
0.064,0.06
0.066,0.055
0.068,0.045
0.07,0.04
0.072,0.035
0.074,0.025
0.076,0.02
0.078,0.015
0.08,0.01
0.082,0.005
0.084,0.005
0.086,0.005
0.088,0.005
0.09,0.01
0.092,0.02
0.094,0.025
0.096,0.035
0.098,0.04
0.1,0.04
0.102,0.035
0.104,0.025
0.106,0.02
0.108,0.015
0.11,0.02
0.112,0.025
0.114,0.035
0.116,0.05
0.118,0.06
0.12,0.065
0.122,0.055
0.124,0.04
0.126,0.01
0.128,-0.025
0.13,-0.055
0.132,-0.08
0.134,-0.095
0.136,-0.085
0.138,-0.065
0.14,-0.035
0.142,0.005
0.144,0.04
0.146,0.065
0.148,0.075
0.15,0.07
0.152,0.055
0.154,0.03
0.156,0.005
0.158,-0.015
0.16,-0.025
0.162,-0.025
0.164,-0.02
0.166,-0.005
0.168,0.01
0.17,0.025
0.172,0.035
0.174,0.035
0.176,0.035
0.178,0.03
0.18,0.025
0.182,0.02
0.184,0.02
0.186,0.025
0.188,0.025
0.19,0.025
0.192,0.02
0.194,0.015
0.196,0.005
0.198,-0.01
0.2,-0.02
0.202,-0.03
0.204,-0.035
0.206,-0.04
0.208,-0.04
0.21,-0.04
0.212,-0.04
0.214,-0.045
0.216,-0.055
0.218,-0.06
0.22,-0.065
0.222,-0.065
0.224,-0.055
0.226,-0.045
0.228,-0.025
0.23,-0.005
0.232,0.01
0.234,0.025
0.236,0.025
0.238,0.015
0.24,0
0.242,-0.02
0.244,-0.045
0.246,-0.065
0.248,-0.08
0.25,-0.085
0.252,-0.08
0.254,-0.075
0.256,-0.06
0.258,-0.055
0.26,-0.045
0.262,-0.045
0.264,-0.05
0.266,-0.055
0.268,-0.06
0.27,-0.06
0.272,-0.06
0.274,-0.055
0.276,-0.045
0.278,-0.035
0.28,-0.025
0.282,-0.025
0.284,-0.03
0.286,-0.04
0.288,-0.05
0.29,-0.07
0.292,-0.08
0.294,-0.09
0.296,-0.095
0.298,-0.095
0.3,-0.09
0.302,-0.085
0.304,-0.085
0.306,-0.085
0.308,-0.085
0.31,-0.09
0.312,-0.095
0.314,-0.1
0.316,-0.1
0.318,-0.095
0.32,-0.09
0.322,-0.085
0.324,-0.08
0.326,-0.08
0.328,-0.08
0.33,-0.085
0.332,-0.09
0.334,-0.09
0.336,-0.09
0.338,-0.085
0.34,-0.075
0.342,-0.065
0.344,-0.055
0.346,-0.045
0.348,-0.045
0.35,-0.045
0.352,-0.05
0.354,-0.055
0.356,-0.055
0.358,-0.055
0.36,-0.045
0.362,-0.035
0.364,-0.02
0.366,-0.005
0.368,0.005
0.37,0.005
0.372,0
0.374,-0.01
0.376,-0.03
0.378,-0.055
0.38,-0.075
0.382,-0.09
0.384,-0.095
0.386,-0.095
0.388,-0.09
0.39,-0.075
0.392,-0.06
0.394,-0.045
0.396,-0.035
0.398,-0.035
0.4,-0.04
0.402,-0.05
0.404,-0.06
0.406,-0.075
0.408,-0.085
0.41,-0.095
0.412,-0.1
0.414,-0.1
0.416,-0.105
0.418,-0.105
0.42,-0.105
0.422,-0.11
0.424,-0.115
0.426,-0.125
0.428,-0.13
0.43,-0.14
0.432,-0.145
0.434,-0.145
0.436,-0.145
0.438,-0.135
0.44,-0.125
0.442,-0.11
0.444,-0.1
0.446,-0.085
0.448,-0.075
0.45,-0.07
0.452,-0.065
0.454,-0.075
0.456,-0.085
0.458,-0.1
0.46,-0.115
0.462,-0.135
0.464,-0.155
0.466,-0.165
0.468,-0.175
0.47,-0.175
0.472,-0.175
0.474,-0.165
0.476,-0.16
0.478,-0.15
0.48,-0.14
0.482,-0.135
0.484,-0.13
0.486,-0.13
0.488,-0.13
0.49,-0.125
0.492,-0.125
0.494,-0.12
0.496,-0.115
0.498,-0.105
0.5,-0.095
0.502,-0.085
0.504,-0.075
0.506,-0.07
0.508,-0.06
0.51,-0.055
0.512,-0.045
0.514,-0.035
0.516,-0.015
0.518,0.015
0.52,0.055
0.522,0.105
0.524,0.165
0.526,0.22
0.528,0.28
0.53,0.325
0.532,0.355
0.534,0.37
0.536,0.36
0.538,0.34
0.54,0.305
0.542,0.265
0.544,0.225
0.546,0.19
0.548,0.16
0.55,0.13
0.552,0.105
0.554,0.08
0.556,0.055
0.558,0.02
0.56,-0.015
0.562,-0.05
0.564,-0.08
0.566,-0.095
0.568,-0.1
0.57,-0.095
0.572,-0.075
0.574,-0.055
0.576,-0.03
0.578,-0.02
0.58,-0.02
0.582,-0.035
0.584,-0.06
0.586,-0.095
0.588,-0.13
0.59,-0.155
0.592,-0.17
0.594,-0.17
0.596,-0.155
0.598,-0.13
0.6,-0.105
0.602,-0.085
0.604,-0.075
0.606,-0.075
0.608,-0.085
0.61,-0.1
0.612,-0.12
0.614,-0.13
0.616,-0.13
0.618,-0.12
0.62,-0.1
0.622,-0.075
0.624,-0.045
0.626,-0.025
0.628,-0.01
0.63,-0.01
0.632,-0.015
0.634,-0.03
0.636,-0.045
0.638,-0.06
0.64,-0.075
0.642,-0.075
0.644,-0.07
0.646,-0.06
0.648,-0.045
0.65,-0.03
0.652,-0.015
0.654,-0.005
0.656,0
0.658,0.005
0.66,0.005
0.662,0
0.664,0
0.666,0
0.668,-0.005
0.67,-0.005
0.672,-0.005
0.674,-0.005
0.676,-0.005
0.678,-0.005
0.68,-0.005
0.682,-0.005
0.684,-0.005
0.686,0
0.688,0.005
0.69,0.015
0.692,0.025
0.694,0.04
0.696,0.045
0.698,0.055
0.7,0.06
0.702,0.055
0.704,0.05
0.706,0.04
0.708,0.025
0.71,0.01
0.712,-0.005
0.714,-0.015
0.716,-0.02
0.718,-0.025
0.72,-0.02
0.722,-0.01
0.724,0.005
0.726,0.02
0.728,0.04
0.73,0.055
0.732,0.07
0.734,0.08
0.736,0.095
0.738,0.105
0.74,0.115
0.742,0.125
0.744,0.13
0.746,0.14
0.748,0.14
0.75,0.14
0.752,0.135
0.754,0.13
0.756,0.125
0.758,0.115
0.76,0.115
0.762,0.12
0.764,0.13
0.766,0.145
0.768,0.16
0.77,0.17
0.772,0.18
0.774,0.18
0.776,0.17
0.778,0.155
0.78,0.14
0.782,0.13
0.784,0.12
0.786,0.125
0.788,0.135
0.79,0.155
0.792,0.175
0.794,0.2
0.796,0.22
0.798,0.235
0.8,0.24
0.802,0.245
0.804,0.245
0.806,0.245
0.808,0.245
0.81,0.25
0.812,0.255
0.814,0.26
0.816,0.265
0.818,0.27
0.82,0.265
0.822,0.26
0.824,0.25
0.826,0.245
0.828,0.235
0.83,0.225
0.832,0.215
0.834,0.205
0.836,0.195
0.838,0.18
0.84,0.165
0.842,0.15
0.844,0.13
0.846,0.12
0.848,0.115
0.85,0.115
0.852,0.115
0.854,0.12
0.856,0.12
0.858,0.115
0.86,0.1
0.862,0.08
0.864,0.05
0.866,0.02
0.868,-0.005
0.87,-0.02
0.872,-0.025
0.874,-0.02
0.876,-0.005
0.878,0.005
0.88,0.015
0.882,0.02
0.884,0.01
0.886,0
0.888,-0.02
0.89,-0.035
0.892,-0.045
0.894,-0.05
0.896,-0.04
0.898,-0.025
0.9,-0.005
0.902,0.01
0.904,0.015
0.906,0.015
0.908,0
0.91,-0.02
0.912,-0.035
0.914,-0.05
0.916,-0.055
0.918,-0.055
0.92,-0.04
0.922,-0.025
0.924,-0.015
0.926,-0.01
0.928,-0.01
0.93,-0.02
0.932,-0.04
0.934,-0.055
0.936,-0.065
0.938,-0.07
0.94,-0.06
0.942,-0.04
0.944,-0.015
0.946,0.01
0.948,0.03
0.95,0.04
0.952,0.04
0.954,0.03
0.956,0.005
0.958,-0.02
0.96,-0.045
0.962,-0.065
0.964,-0.08
0.966,-0.09
0.968,-0.095
0.97,-0.1
0.972,-0.1
0.974,-0.1
0.976,-0.1
0.978,-0.1
0.98,-0.095
0.982,-0.095
0.984,-0.09
0.986,-0.08
0.988,-0.075
0.99,-0.07
0.992,-0.07
0.994,-0.07
0.996,-0.075
0.998,-0.08
1,-0.08
1.002,-0.08
1.004,-0.075
1.006,-0.065
1.008,-0.05
1.01,-0.035
1.012,-0.02
1.014,-0.01
1.016,-0.005
1.018,-0.005
1.02,-0.01
1.022,-0.02
1.024,-0.04
1.026,-0.055
1.028,-0.075
1.03,-0.09
1.032,-0.1
1.034,-0.105
1.036,-0.095
1.038,-0.075
1.04,-0.05
1.042,-0.015
1.044,0.015
1.046,0.035
1.048,0.05
1.05,0.045
1.052,0.025
1.054,-0.005
1.056,-0.045
1.058,-0.08
1.06,-0.11
1.062,-0.13
1.064,-0.135
1.066,-0.125
1.068,-0.11
1.07,-0.085
1.072,-0.06
1.074,-0.045
1.076,-0.03
1.078,-0.03
1.08,-0.035
1.082,-0.04
1.084,-0.04
1.086,-0.045
1.088,-0.04
1.09,-0.03
1.092,-0.02
1.094,-0.01
1.096,-0.005
1.098,-0.005
1.1,-0.005
1.102,-0.01
1.104,-0.02
1.106,-0.02
1.108,-0.025
1.11,-0.02
1.112,-0.015
1.114,-0.01
1.116,0
1.118,0.005
1.12,0.005
1.122,0
1.124,-0.015
1.126,-0.035
1.128,-0.06
1.13,-0.085
1.132,-0.11
1.134,-0.125
1.136,-0.135
1.138,-0.135
1.14,-0.13
1.142,-0.11
1.144,-0.09
1.146,-0.065
1.148,-0.05
1.15,-0.04
1.152,-0.045
1.154,-0.055
1.156,-0.07
1.158,-0.09
1.16,-0.105
1.162,-0.115
1.164,-0.115
1.166,-0.105
1.168,-0.085
1.17,-0.065
1.172,-0.045
1.174,-0.03
1.176,-0.02
1.178,-0.02
1.18,-0.025
1.182,-0.03
1.184,-0.04
1.186,-0.04
1.188,-0.035
1.19,-0.035
1.192,-0.03
1.194,-0.03
1.196,-0.035
1.198,-0.05
1.2,-0.07
1.202,-0.09
1.204,-0.115
1.206,-0.13
1.208,-0.135
1.21,-0.135
1.212,-0.13
1.214,-0.12
1.216,-0.115
1.218,-0.11
1.22,-0.115
1.222,-0.125
1.224,-0.14
1.226,-0.15
1.228,-0.155
1.23,-0.155
1.232,-0.15
1.234,-0.135
1.236,-0.115
1.238,-0.095
1.24,-0.075
1.242,-0.06
1.244,-0.055
1.246,-0.055
1.248,-0.06
1.25,-0.07
1.252,-0.08
1.254,-0.095
1.256,-0.105
1.258,-0.12
1.26,-0.13
1.262,-0.135
1.264,-0.14
1.266,-0.135
1.268,-0.13
1.27,-0.12
1.272,-0.11
1.274,-0.1
1.276,-0.09
1.278,-0.09
1.28,-0.1
1.282,-0.115
1.284,-0.135
1.286,-0.155
1.288,-0.18
1.29,-0.19
1.292,-0.195
1.294,-0.19
1.296,-0.175
1.298,-0.15
1.3,-0.125
1.302,-0.1
1.304,-0.08
1.306,-0.07
1.308,-0.07
1.31,-0.08
1.312,-0.095
1.314,-0.11
1.316,-0.125
1.318,-0.13
1.32,-0.13
1.322,-0.125
1.324,-0.115
1.326,-0.1
1.328,-0.085
1.33,-0.075
1.332,-0.07
1.334,-0.065
1.336,-0.07
1.338,-0.08
1.34,-0.095
1.342,-0.11
1.344,-0.125
1.346,-0.14
1.348,-0.145
1.35,-0.145
1.352,-0.14
1.354,-0.125
1.356,-0.11
1.358,-0.09
1.36,-0.07
1.362,-0.055
1.364,-0.045
1.366,-0.045
1.368,-0.05
1.37,-0.065
1.372,-0.085
1.374,-0.105
1.376,-0.12
1.378,-0.125
1.38,-0.13
1.382,-0.125
1.384,-0.115
1.386,-0.1
1.388,-0.09
1.39,-0.09
1.392,-0.09
1.394,-0.095
1.396,-0.11
1.398,-0.12
1.4,-0.13
1.402,-0.135
1.404,-0.135
1.406,-0.125
1.408,-0.11
1.41,-0.1
1.412,-0.085
1.414,-0.08
1.416,-0.075
1.418,-0.08
1.42,-0.09
1.422,-0.1
1.424,-0.11
1.426,-0.11
1.428,-0.11
1.43,-0.105
1.432,-0.095
1.434,-0.085
1.436,-0.07
1.438,-0.065
1.44,-0.06
1.442,-0.065
1.444,-0.07
1.446,-0.075
1.448,-0.08
1.45,-0.09
1.452,-0.095
1.454,-0.095
1.456,-0.1
1.458,-0.105
1.46,-0.11
1.462,-0.115
1.464,-0.125
1.466,-0.125
1.468,-0.125
1.47,-0.12
1.472,-0.11
1.474,-0.09
1.476,-0.07
1.478,-0.045
1.48,-0.025
1.482,-0.015
1.484,-0.005
1.486,-0.005
1.488,-0.005
1.49,-0.015
1.492,-0.02
1.494,-0.025
1.496,-0.025
1.498,-0.02
1.5,-0.02
1.502,-0.015
1.504,-0.015
1.506,-0.015
1.508,-0.02
1.51,-0.02
1.512,-0.02
1.514,-0.02
1.516,-0.01
1.518,0
1.52,0.015
1.522,0.03
1.524,0.04
1.526,0.045
1.528,0.04
1.53,0.03
1.532,0.015
1.534,0
1.536,-0.01
1.538,-0.01
1.54,-0.005
1.542,0.01
1.544,0.025
1.546,0.045
1.548,0.055
1.55,0.055
1.552,0.05
1.554,0.035
1.556,0.02
1.558,0.005
1.56,-0.01
1.562,-0.015
1.564,-0.015
1.566,-0.01
1.568,-0.005
1.57,-0.005
1.572,-0.005
1.574,-0.015
1.576,-0.025
1.578,-0.04
1.58,-0.05
1.582,-0.055
1.584,-0.06
1.586,-0.05
1.588,-0.04
1.59,-0.025
1.592,-0.015
1.594,-0.005
1.596,-0.005
1.598,-0.01
1.6,-0.02
1.602,-0.03
1.604,-0.04
1.606,-0.045
1.608,-0.045
1.61,-0.04
1.612,-0.025
1.614,-0.01
1.616,0.01
1.618,0.02
1.62,0.03
1.622,0.035
1.624,0.035
1.626,0.03
1.628,0.03
1.63,0.025
1.632,0.02
1.634,0.02
1.636,0.015
1.638,0.015
1.64,0.02
1.642,0.03
1.644,0.05
1.646,0.08
1.648,0.125
1.65,0.19
1.652,0.26
1.654,0.34
1.656,0.415
1.658,0.48
1.66,0.525
1.662,0.545
1.664,0.54
1.666,0.51
1.668,0.47
1.67,0.415
1.672,0.365
1.674,0.325
1.676,0.29
1.678,0.27
1.68,0.255
1.682,0.245
1.684,0.23
1.686,0.21
1.688,0.185
1.69,0.15
1.692,0.11
1.694,0.075
1.696,0.045
1.698,0.03
1.7,0.03
1.702,0.045
1.704,0.07
1.706,0.105
1.708,0.135
1.71,0.16
1.712,0.17
1.714,0.17
1.716,0.155
1.718,0.135
1.72,0.105
1.722,0.08
1.724,0.06
1.726,0.045
1.728,0.045
1.73,0.05
1.732,0.06
1.734,0.075
1.736,0.09
1.738,0.095
1.74,0.1
1.742,0.09
1.744,0.08
1.746,0.06
1.748,0.04
1.75,0.025
1.752,0.015
1.754,0.01
1.756,0.015
1.758,0.03
1.76,0.055
1.762,0.08
1.764,0.105
1.766,0.13
1.768,0.15
1.77,0.16
1.772,0.16
1.774,0.155
1.776,0.14
1.778,0.125
1.78,0.115
1.782,0.105
1.784,0.1
1.786,0.105
1.788,0.11
1.79,0.125
1.792,0.135
1.794,0.15
1.796,0.16
1.798,0.165
1.8,0.165
1.802,0.165
1.804,0.16
1.806,0.155
1.808,0.15
1.81,0.15
1.812,0.15
1.814,0.15
1.816,0.155
1.818,0.16
1.82,0.17
1.822,0.175
1.824,0.185
1.826,0.195
1.828,0.2
1.83,0.21
1.832,0.215
1.834,0.215
1.836,0.215
1.838,0.205
1.84,0.2
1.842,0.19
1.844,0.18
1.846,0.17
1.848,0.165
1.85,0.165
1.852,0.17
1.854,0.175
1.856,0.19
1.858,0.2
1.86,0.215
1.862,0.22
1.864,0.23
1.866,0.23
1.868,0.235
1.87,0.235
1.872,0.235
1.874,0.24
1.876,0.255
1.878,0.27
1.88,0.285
1.882,0.305
1.884,0.32
1.886,0.335
1.888,0.34
1.89,0.34
1.892,0.33
1.894,0.325
1.896,0.315
1.898,0.31
1.9,0.31
1.902,0.32
1.904,0.335
1.906,0.355
1.908,0.38
1.91,0.4
1.912,0.42
1.914,0.43
1.916,0.44
1.918,0.44
1.92,0.445
1.922,0.45
1.924,0.455
1.926,0.46
1.928,0.47
1.93,0.475
1.932,0.48
1.934,0.475
1.936,0.46
1.938,0.44
1.94,0.405
1.942,0.37
1.944,0.335
1.946,0.295
1.948,0.265
1.95,0.24
1.952,0.225
1.954,0.215
1.956,0.21
1.958,0.205
1.96,0.205
1.962,0.2
1.964,0.19
1.966,0.18
1.968,0.165
1.97,0.15
1.972,0.13
1.974,0.105
1.976,0.085
1.978,0.065
1.98,0.05
1.982,0.035
1.984,0.025
1.986,0.02
1.988,0.015
1.99,0.015
1.992,0.015
1.994,0.015
1.996,0.01
1.998,0
2,-0.015
2.002,-0.035
2.004,-0.06
2.006,-0.08
2.008,-0.1
2.01,-0.11
2.012,-0.115
2.014,-0.115
2.016,-0.11
2.018,-0.105
2.02,-0.1
2.022,-0.1
2.024,-0.105
2.026,-0.115
2.028,-0.13
2.03,-0.14
2.032,-0.15
2.034,-0.15
2.036,-0.145
2.038,-0.13
2.04,-0.115
2.042,-0.095
2.044,-0.085
2.046,-0.08
2.048,-0.08
2.05,-0.085
2.052,-0.1
2.054,-0.105
2.056,-0.11
2.058,-0.11
2.06,-0.1
2.062,-0.09
2.064,-0.075
2.066,-0.07
2.068,-0.075
2.07,-0.095
2.072,-0.125
2.074,-0.16
2.076,-0.2
2.078,-0.235
2.08,-0.255
2.082,-0.26
2.084,-0.245
2.086,-0.22
2.088,-0.185
2.09,-0.15
2.092,-0.125
2.094,-0.11
2.096,-0.105
2.098,-0.12
2.1,-0.14
2.102,-0.16
2.104,-0.18
2.106,-0.19
2.108,-0.185
2.11,-0.17
2.112,-0.15
2.114,-0.125
2.116,-0.1
2.118,-0.09
2.12,-0.085
2.122,-0.095
2.124,-0.11
2.126,-0.13
2.128,-0.15
2.13,-0.165
2.132,-0.17
2.134,-0.17
2.136,-0.16
2.138,-0.15
2.14,-0.135
2.142,-0.12
2.144,-0.11
2.146,-0.105
2.148,-0.1
2.15,-0.1
2.152,-0.1
2.154,-0.1
2.156,-0.105
2.158,-0.105
2.16,-0.11
2.162,-0.115
2.164,-0.12
2.166,-0.125
2.168,-0.125
2.17,-0.13
2.172,-0.125
2.174,-0.12
2.176,-0.115
2.178,-0.105
2.18,-0.1
2.182,-0.095
2.184,-0.09
2.186,-0.095
2.188,-0.105
2.19,-0.12
2.192,-0.135
2.194,-0.155
2.196,-0.175
2.198,-0.19
2.2,-0.2
2.202,-0.205
2.204,-0.2
2.206,-0.19
2.208,-0.18
2.21,-0.165
2.212,-0.15
2.214,-0.135
2.216,-0.125
2.218,-0.12
2.22,-0.115
2.222,-0.115
2.224,-0.11
2.226,-0.105
2.228,-0.095
2.23,-0.09
2.232,-0.08
2.234,-0.07
2.236,-0.06
2.238,-0.055
2.24,-0.055
2.242,-0.065
2.244,-0.075
2.246,-0.085
2.248,-0.095
2.25,-0.105
2.252,-0.11
2.254,-0.11
2.256,-0.1
2.258,-0.09
2.26,-0.075
2.262,-0.065
2.264,-0.055
2.266,-0.05
2.268,-0.05
2.27,-0.06
2.272,-0.075
2.274,-0.09
2.276,-0.11
2.278,-0.125
2.28,-0.135
2.282,-0.14
2.284,-0.14
2.286,-0.135
2.288,-0.125
2.29,-0.115
2.292,-0.105
2.294,-0.1
2.296,-0.095
2.298,-0.095
2.3,-0.095
2.302,-0.1
2.304,-0.11
2.306,-0.115
2.308,-0.12
2.31,-0.125
2.312,-0.12
2.314,-0.115
2.316,-0.11
2.318,-0.1
2.32,-0.09
2.322,-0.085
2.324,-0.085
2.326,-0.085
2.328,-0.09
2.33,-0.095
2.332,-0.1
2.334,-0.105
2.336,-0.105
2.338,-0.1
2.34,-0.095
2.342,-0.085
2.344,-0.08
2.346,-0.08
2.348,-0.08
2.35,-0.09
2.352,-0.1
2.354,-0.11
2.356,-0.12
2.358,-0.125
2.36,-0.12
2.362,-0.115
2.364,-0.105
2.366,-0.09
2.368,-0.08
2.37,-0.07
2.372,-0.07
2.374,-0.075
2.376,-0.085
2.378,-0.095
2.38,-0.105
2.382,-0.105
2.384,-0.105
2.386,-0.095
2.388,-0.08
2.39,-0.06
2.392,-0.045
2.394,-0.025
2.396,-0.015
2.398,-0.015
2.4,-0.015
2.402,-0.025
2.404,-0.035
2.406,-0.04
2.408,-0.05
2.41,-0.055
2.412,-0.055
2.414,-0.055
2.416,-0.055
2.418,-0.055
2.42,-0.055
2.422,-0.055
2.424,-0.055
2.426,-0.055
2.428,-0.055
2.43,-0.05
2.432,-0.04
2.434,-0.03
2.436,-0.025
2.438,-0.015
2.44,-0.01
2.442,-0.01
2.444,-0.015
2.446,-0.025
2.448,-0.035
2.45,-0.05
2.452,-0.06
2.454,-0.065
2.456,-0.065
2.458,-0.065
2.46,-0.055
2.462,-0.045
2.464,-0.04
2.466,-0.03
2.468,-0.025
2.47,-0.025
2.472,-0.025
2.474,-0.03
2.476,-0.035
2.478,-0.04
2.48,-0.045
2.482,-0.045
2.484,-0.05
2.486,-0.055
2.488,-0.065
2.49,-0.07
2.492,-0.08
2.494,-0.09
2.496,-0.095
2.498,-0.105
2.5,-0.11
2.502,-0.11
2.504,-0.115
2.506,-0.115
2.508,-0.115
2.51,-0.12
2.512,-0.12
2.514,-0.115
2.516,-0.115
2.518,-0.105
2.52,-0.095
2.522,-0.08
2.524,-0.07
2.526,-0.055
2.528,-0.05
2.53,-0.05
2.532,-0.055
2.534,-0.06
2.536,-0.075
2.538,-0.085
2.54,-0.09
2.542,-0.085
2.544,-0.08
2.546,-0.07
2.548,-0.055
2.55,-0.04
2.552,-0.03
2.554,-0.025
2.556,-0.025
2.558,-0.035
2.56,-0.045
2.562,-0.05
2.564,-0.06
2.566,-0.06
2.568,-0.055
2.57,-0.045
2.572,-0.025
2.574,0
2.576,0.035
2.578,0.075
2.58,0.125
2.582,0.18
2.584,0.24
2.586,0.295
2.588,0.345
2.59,0.385
2.592,0.405
2.594,0.405
2.596,0.385
2.598,0.35
2.6,0.3
2.602,0.25
2.604,0.2
2.606,0.16
2.608,0.13
2.61,0.11
2.612,0.095
2.614,0.08
2.616,0.06
2.618,0.035
2.62,0
2.622,-0.035
2.624,-0.07
2.626,-0.1
2.628,-0.115
2.63,-0.12
2.632,-0.11
2.634,-0.09
2.636,-0.065
2.638,-0.04
2.64,-0.02
2.642,-0.005
2.644,0
2.646,0
2.648,0
2.65,-0.005
2.652,-0.01
2.654,-0.01
2.656,-0.01
2.658,-0.015
2.66,-0.02
2.662,-0.035
2.664,-0.05
2.666,-0.065
2.668,-0.085
2.67,-0.095
2.672,-0.1
2.674,-0.1
2.676,-0.09
2.678,-0.07
2.68,-0.055
2.682,-0.035
2.684,-0.025
2.686,-0.015
2.688,-0.015
2.69,-0.02
2.692,-0.025
2.694,-0.03
2.696,-0.03
2.698,-0.03
2.7,-0.03
2.702,-0.025
2.704,-0.02
2.706,-0.02
2.708,-0.02
2.71,-0.025
2.712,-0.035
2.714,-0.04
2.716,-0.045
2.718,-0.05
2.72,-0.045
2.722,-0.04
2.724,-0.03
2.726,-0.015
2.728,0
2.73,0.015
2.732,0.02
2.734,0.025
2.736,0.02
2.738,0.01
2.74,-0.01
2.742,-0.025
2.744,-0.045
2.746,-0.06
2.748,-0.065
2.75,-0.065
2.752,-0.06
2.754,-0.045
2.756,-0.025
2.758,-0.005
2.76,0.01
2.762,0.025
2.764,0.03
2.766,0.03
2.768,0.025
2.77,0.015
2.772,0.005
2.774,0
2.776,-0.005
2.778,0
2.78,0.005
2.782,0.02
2.784,0.035
2.786,0.05
2.788,0.065
2.79,0.075
2.792,0.08
2.794,0.085
2.796,0.08
2.798,0.07
2.8,0.065
2.802,0.05
2.804,0.045
2.806,0.035
2.808,0.03
2.81,0.03
2.812,0.03
2.814,0.035
2.816,0.04
2.818,0.05
2.82,0.06
2.822,0.07
2.824,0.085
2.826,0.095
2.828,0.11
2.83,0.125
2.832,0.14
2.834,0.15
2.836,0.165
2.838,0.175
2.84,0.18
2.842,0.19
2.844,0.195
2.846,0.2
2.848,0.21
2.85,0.22
2.852,0.23
2.854,0.245
2.856,0.26
2.858,0.265
2.86,0.27
2.862,0.27
2.864,0.255
2.866,0.24
2.868,0.22
2.87,0.2
2.872,0.185
2.874,0.175
2.876,0.175
2.878,0.18
2.88,0.19
2.882,0.205
2.884,0.215
2.886,0.225
2.888,0.225
2.89,0.22
2.892,0.2
2.894,0.18
2.896,0.155
2.898,0.13
2.9,0.11
2.902,0.09
2.904,0.08
2.906,0.07
2.908,0.07
2.91,0.07
2.912,0.075
2.914,0.075
2.916,0.075
2.918,0.07
2.92,0.065
2.922,0.05
2.924,0.035
2.926,0.02
2.928,0.005
2.93,-0.01
2.932,-0.025
2.934,-0.035
2.936,-0.045
2.938,-0.05
2.94,-0.05
2.942,-0.055
2.944,-0.05
2.946,-0.05
2.948,-0.05
2.95,-0.045
2.952,-0.045
2.954,-0.05
2.956,-0.055
2.958,-0.06
2.96,-0.07
2.962,-0.075
2.964,-0.085
2.966,-0.095
2.968,-0.095
2.97,-0.095
2.972,-0.09
2.974,-0.075
2.976,-0.06
2.978,-0.04
2.98,-0.025
2.982,-0.01
2.984,-0.01
2.986,-0.01
2.988,-0.02
2.99,-0.04
2.992,-0.06
2.994,-0.08
2.996,-0.09
2.998,-0.1
3,-0.095
3.002,-0.085
3.004,-0.07
3.006,-0.055
3.008,-0.04
3.01,-0.03
3.012,-0.025
3.014,-0.03
3.016,-0.04
3.018,-0.05
3.02,-0.065
3.022,-0.08
3.024,-0.09
3.026,-0.095
3.028,-0.095
3.03,-0.095
3.032,-0.09
3.034,-0.09
3.036,-0.085
3.038,-0.08
3.04,-0.075
3.042,-0.07
3.044,-0.065
3.046,-0.06
3.048,-0.055
3.05,-0.05
3.052,-0.045
3.054,-0.05
3.056,-0.055
3.058,-0.06
3.06,-0.07
3.062,-0.08
3.064,-0.085
3.066,-0.09
3.068,-0.09
3.07,-0.09
3.072,-0.085
3.074,-0.08
3.076,-0.07
3.078,-0.06
3.08,-0.05
3.082,-0.04
3.084,-0.03
3.086,-0.02
3.088,-0.015
3.09,-0.01
3.092,-0.01
3.094,-0.01
3.096,-0.02
3.098,-0.035
3.1,-0.055
3.102,-0.07
3.104,-0.08
3.106,-0.085
3.108,-0.085
3.11,-0.07
3.112,-0.05
3.114,-0.02
3.116,0.005
3.118,0.025
3.12,0.04
3.122,0.04
3.124,0.03
3.126,0.01
3.128,-0.02
3.13,-0.045
3.132,-0.07
3.134,-0.085
3.136,-0.085
3.138,-0.08
3.14,-0.065
3.142,-0.05
3.144,-0.03
3.146,-0.02
3.148,-0.015
3.15,-0.02
3.152,-0.03
3.154,-0.045
3.156,-0.055
3.158,-0.065
3.16,-0.065
3.162,-0.06
3.164,-0.05
3.166,-0.04
3.168,-0.03
3.17,-0.03
3.172,-0.035
3.174,-0.04
3.176,-0.05
3.178,-0.055
3.18,-0.05
3.182,-0.04
3.184,-0.025
3.186,-0.01
3.188,0.005
3.19,0.015
3.192,0.01
3.194,-0.01
3.196,-0.035
3.198,-0.065
3.2,-0.09
3.202,-0.11
3.204,-0.11
3.206,-0.1
3.208,-0.07
3.21,-0.035
3.212,0
3.214,0.03
3.216,0.05
3.218,0.055
3.22,0.045
3.222,0.03
3.224,0.005
3.226,-0.015
3.228,-0.035
3.23,-0.045
3.232,-0.05
3.234,-0.045
3.236,-0.04
3.238,-0.03
3.24,-0.025
3.242,-0.015
3.244,-0.01
3.246,-0.005
3.248,-0.005
3.25,0
3.252,0
3.254,0
3.256,-0.005
3.258,-0.01
3.26,-0.015
3.262,-0.015
3.264,-0.02
3.266,-0.02
3.268,-0.015
3.27,-0.01
3.272,-0.005
3.274,0
3.276,0.005
3.278,0.005
3.28,0
3.282,-0.005
3.284,-0.015
3.286,-0.02
3.288,-0.03
3.29,-0.03
3.292,-0.025
3.294,-0.02
3.296,-0.01
3.298,0.005
3.3,0.015
3.302,0.02
3.304,0.025
3.306,0.025
3.308,0.025
3.31,0.015
3.312,0.01
3.314,0
3.316,-0.01
3.318,-0.015
3.32,-0.025
3.322,-0.03
3.324,-0.035
3.326,-0.04
3.328,-0.04
3.33,-0.04
3.332,-0.04
3.334,-0.035
3.336,-0.03
3.338,-0.02
3.34,-0.01
3.342,0
3.344,0.01
3.346,0.02
3.348,0.03
3.35,0.04
3.352,0.05
3.354,0.05
3.356,0.05
3.358,0.05
3.36,0.045
3.362,0.04
3.364,0.035
3.366,0.035
3.368,0.035
3.37,0.045
3.372,0.05
3.374,0.065
3.376,0.07
3.378,0.08
3.38,0.08
3.382,0.075
3.384,0.065
3.386,0.045
3.388,0.03
3.39,0.01
3.392,0
3.394,-0.005
3.396,-0.005
3.398,0.005
3.4,0.02
3.402,0.035
3.404,0.055
3.406,0.07
3.408,0.075
3.41,0.075
3.412,0.07
3.414,0.06
3.416,0.045
3.418,0.035
3.42,0.02
3.422,0.015
3.424,0.01
3.426,0.015
3.428,0.02
3.43,0.03
3.432,0.035
3.434,0.04
3.436,0.04
3.438,0.035
3.44,0.03
3.442,0.015
3.444,0
3.446,-0.02
3.448,-0.035
3.45,-0.05
3.452,-0.06
3.454,-0.07
3.456,-0.07
3.458,-0.065
3.46,-0.055
3.462,-0.04
3.464,-0.02
3.466,0
3.468,0.02
3.47,0.035
3.472,0.04
3.474,0.035
3.476,0.025
3.478,0.005
3.48,-0.02
3.482,-0.045
3.484,-0.06
3.486,-0.065
3.488,-0.065
3.49,-0.05
3.492,-0.035
3.494,-0.015
3.496,0
3.498,0.01
3.5,0.005
3.502,-0.005
3.504,-0.025
3.506,-0.045
3.508,-0.06
3.51,-0.07
3.512,-0.07
3.514,-0.06
3.516,-0.045
3.518,-0.03
3.52,-0.02
3.522,-0.015
3.524,-0.015
3.526,-0.02
3.528,-0.025
3.53,-0.02
3.532,-0.005
3.534,0.03
3.536,0.08
3.538,0.145
3.54,0.225
3.542,0.3
3.544,0.375
3.546,0.43
3.548,0.465
3.55,0.48
3.552,0.475
3.554,0.45
3.556,0.415
3.558,0.375
3.56,0.335
3.562,0.295
3.564,0.26
3.566,0.23
3.568,0.2
3.57,0.175
3.572,0.145
3.574,0.11
3.576,0.07
3.578,0.03
3.58,-0.005
3.582,-0.04
3.584,-0.06
3.586,-0.07
3.588,-0.065
3.59,-0.05
3.592,-0.025
3.594,0.005
3.596,0.03
3.598,0.05
3.6,0.055
3.602,0.05
3.604,0.035
3.606,0.01
3.608,-0.015
3.61,-0.04
3.612,-0.06
3.614,-0.07
3.616,-0.075
3.618,-0.065
3.62,-0.055
3.622,-0.04
3.624,-0.03
3.626,-0.025
3.628,-0.02
3.63,-0.025
3.632,-0.03
3.634,-0.035
3.636,-0.035
3.638,-0.035
3.64,-0.03
3.642,-0.025
3.644,-0.02
3.646,-0.02
3.648,-0.02
3.65,-0.02
3.652,-0.015
3.654,-0.015
3.656,-0.01
3.658,-0.005
3.66,0
3.662,0.005
3.664,0.005
3.666,0
3.668,-0.01
3.67,-0.025
3.672,-0.045
3.674,-0.065
3.676,-0.08
3.678,-0.09
3.68,-0.095
3.682,-0.09
3.684,-0.08
3.686,-0.06
3.688,-0.045
3.69,-0.025
3.692,-0.01
3.694,0
3.696,0.01
3.698,0.015
3.7,0.015
3.702,0.015
3.704,0.01
3.706,0.005
3.708,0
3.71,0
3.712,-0.005
3.714,-0.005
3.716,0
3.718,0.005
3.72,0.01
3.722,0.02
3.724,0.025
3.726,0.03
3.728,0.035
3.73,0.03
3.732,0.025
3.734,0.02
3.736,0.015
3.738,0.01
3.74,0.005
3.742,0.01
3.744,0.01
3.746,0.01
3.748,0.01
3.75,0.01
3.752,0.01
3.754,0.005
3.756,0.005
3.758,0.005
3.76,0.015
3.762,0.03
3.764,0.05
3.766,0.07
3.768,0.095
3.77,0.115
3.772,0.13
3.774,0.14
3.776,0.145
3.778,0.145
3.78,0.145
3.782,0.14
3.784,0.135
3.786,0.135
3.788,0.135
3.79,0.14
3.792,0.145
3.794,0.145
3.796,0.15
3.798,0.155
3.8,0.16
3.802,0.16
3.804,0.16
3.806,0.165
3.808,0.165
3.81,0.17
3.812,0.18
3.814,0.185
3.816,0.195
3.818,0.21
3.82,0.22
3.822,0.23
3.824,0.235
3.826,0.24
3.828,0.235
3.83,0.225
3.832,0.215
3.834,0.2
3.836,0.19
3.838,0.185
3.84,0.185
3.842,0.185
3.844,0.19
3.846,0.19
3.848,0.185
3.85,0.175
3.852,0.155
3.854,0.125
3.856,0.1
3.858,0.075
3.86,0.055
3.862,0.045
3.864,0.045
3.866,0.045
3.868,0.05
3.87,0.05
3.872,0.045
3.874,0.03
3.876,0.01
3.878,-0.01
3.88,-0.03
3.882,-0.04
3.884,-0.045
3.886,-0.035
3.888,-0.015
3.89,0.01
3.892,0.025
3.894,0.04
3.896,0.035
3.898,0.02
3.9,-0.005
3.902,-0.04
3.904,-0.07
3.906,-0.1
3.908,-0.115
3.91,-0.12
3.912,-0.11
3.914,-0.095
3.916,-0.075
3.918,-0.055
3.92,-0.04
3.922,-0.035
3.924,-0.035
3.926,-0.045
3.928,-0.065
3.93,-0.08
3.932,-0.1
3.934,-0.11
3.936,-0.115
3.938,-0.11
3.94,-0.1
3.942,-0.08
3.944,-0.06
3.946,-0.04
3.948,-0.03
3.95,-0.025
3.952,-0.035
3.954,-0.05
3.956,-0.07
3.958,-0.09
3.96,-0.105
3.962,-0.115
3.964,-0.115
3.966,-0.11
3.968,-0.095
3.97,-0.085
3.972,-0.08
3.974,-0.085
3.976,-0.095
3.978,-0.115
3.98,-0.135
3.982,-0.155
3.984,-0.165
3.986,-0.165
3.988,-0.155
3.99,-0.135
3.992,-0.11
3.994,-0.075
3.996,-0.05
3.998,-0.025
4,-0.015
4.002,-0.01
4.004,-0.015
4.006,-0.025
4.008,-0.04
4.01,-0.055
4.012,-0.07
4.014,-0.08
4.016,-0.085
4.018,-0.09
4.02,-0.085
4.022,-0.085
4.024,-0.085
4.026,-0.08
4.028,-0.085
4.03,-0.09
4.032,-0.095
4.034,-0.11
4.036,-0.125
4.038,-0.14
4.04,-0.15
4.042,-0.16
4.044,-0.16
4.046,-0.155
4.048,-0.145
4.05,-0.135
4.052,-0.115
4.054,-0.1
4.056,-0.09
4.058,-0.085
4.06,-0.08
4.062,-0.08
4.064,-0.08
4.066,-0.085
4.068,-0.085
4.07,-0.085
4.072,-0.08
4.074,-0.08
4.076,-0.075
4.078,-0.075
4.08,-0.07
4.082,-0.075
4.084,-0.075
4.086,-0.075
4.088,-0.07
4.09,-0.065
4.092,-0.055
4.094,-0.045
4.096,-0.035
4.098,-0.025
4.1,-0.02
4.102,-0.015
4.104,-0.02
4.106,-0.03
4.108,-0.045
4.11,-0.06
4.112,-0.08
4.114,-0.095
4.116,-0.105
4.118,-0.115
4.12,-0.12
4.122,-0.12
4.124,-0.12
4.126,-0.115
4.128,-0.115
4.13,-0.12
4.132,-0.12
4.134,-0.125
4.136,-0.125
4.138,-0.125
4.14,-0.12
4.142,-0.11
4.144,-0.09
4.146,-0.075
4.148,-0.055
4.15,-0.035
4.152,-0.02
4.154,-0.015
4.156,-0.02
4.158,-0.025
4.16,-0.04
4.162,-0.06
4.164,-0.075
4.166,-0.085
4.168,-0.095
4.17,-0.095
4.172,-0.09
4.174,-0.085
4.176,-0.075
4.178,-0.07
4.18,-0.065
4.182,-0.065
4.184,-0.07
4.186,-0.075
4.188,-0.075
4.19,-0.075
4.192,-0.075
4.194,-0.07
4.196,-0.065
4.198,-0.065
4.2,-0.07
4.202,-0.075
4.204,-0.09
4.206,-0.105
4.208,-0.12
4.21,-0.13
4.212,-0.135
4.214,-0.13
4.216,-0.12
4.218,-0.105
4.22,-0.09
4.222,-0.07
4.224,-0.06
4.226,-0.055
4.228,-0.055
4.23,-0.06
4.232,-0.065
4.234,-0.075
4.236,-0.085
4.238,-0.09
4.24,-0.09
4.242,-0.09
4.244,-0.085
4.246,-0.08
4.248,-0.08
4.25,-0.075
4.252,-0.07
4.254,-0.065
4.256,-0.065
4.258,-0.065
4.26,-0.065
4.262,-0.07
4.264,-0.075
4.266,-0.085
4.268,-0.095
4.27,-0.105
4.272,-0.115
4.274,-0.115
4.276,-0.115
4.278,-0.105
4.28,-0.095
4.282,-0.085
4.284,-0.07
4.286,-0.065
4.288,-0.06
4.29,-0.06
4.292,-0.065
4.294,-0.07
4.296,-0.075
4.298,-0.08
4.3,-0.08
4.302,-0.08
4.304,-0.075
4.306,-0.07
4.308,-0.06
4.31,-0.055
4.312,-0.05
4.314,-0.04
4.316,-0.035
4.318,-0.025
4.32,-0.015
4.322,-0.005
4.324,0.005
4.326,0.02
4.328,0.03
4.33,0.035
4.332,0.04
4.334,0.04
4.336,0.035
4.338,0.03
4.34,0.02
4.342,0.01
4.344,-0.005
4.346,-0.015
4.348,-0.03
4.35,-0.035
4.352,-0.045
4.354,-0.05
4.356,-0.05
4.358,-0.05
4.36,-0.05
4.362,-0.05
4.364,-0.045
4.366,-0.045
4.368,-0.05
4.37,-0.05
4.372,-0.055
4.374,-0.055
4.376,-0.055
4.378,-0.05
4.38,-0.045
4.382,-0.04
4.384,-0.03
4.386,-0.015
4.388,-0.01
4.39,0
4.392,0
4.394,-0.005
4.396,-0.01
4.398,-0.025
4.4,-0.04
4.402,-0.06
4.404,-0.075
4.406,-0.085
4.408,-0.09
4.41,-0.09
4.412,-0.08
4.414,-0.065
4.416,-0.045
4.418,-0.025
4.42,-0.01
4.422,0.005
4.424,0.015
4.426,0.02
4.428,0.015
4.43,0.005
4.432,-0.01
4.434,-0.025
4.436,-0.045
4.438,-0.06
4.44,-0.075
4.442,-0.09
4.444,-0.1
4.446,-0.105
4.448,-0.105
4.45,-0.095
4.452,-0.08
4.454,-0.06
4.456,-0.04
4.458,-0.015
4.46,0.005
4.462,0.02
4.464,0.04
4.466,0.055
4.468,0.08
4.47,0.11
4.472,0.155
4.474,0.21
4.476,0.275
4.478,0.345
4.48,0.415
4.482,0.475
4.484,0.52
4.486,0.54
4.488,0.535
4.49,0.505
4.492,0.46
4.494,0.4
4.496,0.335
4.498,0.27
4.5,0.215
4.502,0.175
4.504,0.14
4.506,0.12
4.508,0.105
4.51,0.095
4.512,0.085
4.514,0.07
4.516,0.06
4.518,0.045
4.52,0.035
4.522,0.025
4.524,0.015
4.526,0.01
4.528,0.005
4.53,0.005
4.532,0.005
4.534,0.005
4.536,0.01
4.538,0.015
4.54,0.015
4.542,0.015
4.544,0.01
4.546,0.005
4.548,-0.005
4.55,-0.01
4.552,-0.02
4.554,-0.02
4.556,-0.015
4.558,-0.005
4.56,0.01
4.562,0.025
4.564,0.04
4.566,0.055
4.568,0.055
4.57,0.05
4.572,0.035
4.574,0.015
4.576,-0.01
4.578,-0.03
4.58,-0.045
4.582,-0.05
4.584,-0.05
4.586,-0.045
4.588,-0.035
4.59,-0.025
4.592,-0.02
4.594,-0.02
4.596,-0.02
4.598,-0.025
4.6,-0.035
4.602,-0.035
4.604,-0.035
4.606,-0.03
4.608,-0.02
4.61,-0.005
4.612,0.015
4.614,0.035
4.616,0.05
4.618,0.07
4.62,0.085
4.622,0.095
4.624,0.1
4.626,0.105
4.628,0.11
4.63,0.11
4.632,0.105
4.634,0.105
4.636,0.105
4.638,0.1
4.64,0.095
4.642,0.09
4.644,0.08
4.646,0.07
4.648,0.05
4.65,0.03
4.652,0.01
4.654,-0.01
4.656,-0.025
4.658,-0.03
4.66,-0.025
4.662,-0.005
4.664,0.015
4.666,0.045
4.668,0.075
4.67,0.1
4.672,0.115
4.674,0.12
4.676,0.115
4.678,0.105
4.68,0.09
4.682,0.075
4.684,0.065
4.686,0.06
4.688,0.065
4.69,0.075
4.692,0.09
4.694,0.11
4.696,0.13
4.698,0.145
4.7,0.16
4.702,0.17
4.704,0.175
4.706,0.18
4.708,0.18
4.71,0.18
4.712,0.175
4.714,0.17
4.716,0.165
4.718,0.16
4.72,0.155
4.722,0.16
4.724,0.165
4.726,0.175
4.728,0.195
4.73,0.215
4.732,0.235
4.734,0.255
4.736,0.27
4.738,0.28
4.74,0.285
4.742,0.285
4.744,0.285
4.746,0.29
4.748,0.3
4.75,0.315
4.752,0.335
4.754,0.36
4.756,0.38
4.758,0.395
4.76,0.4
4.762,0.39
4.764,0.37
4.766,0.34
4.768,0.305
4.77,0.27
4.772,0.245
4.774,0.23
4.776,0.225
4.778,0.235
4.78,0.25
4.782,0.265
4.784,0.27
4.786,0.275
4.788,0.265
4.79,0.24
4.792,0.215
4.794,0.185
4.796,0.155
4.798,0.13
4.8,0.11
4.802,0.095
4.804,0.09
4.806,0.08
4.808,0.075
4.81,0.065
4.812,0.05
4.814,0.035
4.816,0.02
4.818,0.01
4.82,0
4.822,0.005
4.824,0.01
4.826,0.025
4.828,0.045
4.83,0.065
4.832,0.085
4.834,0.095
4.836,0.1
4.838,0.09
4.84,0.075
4.842,0.05
4.844,0.02
4.846,-0.01
4.848,-0.035
4.85,-0.055
4.852,-0.07
4.854,-0.08
4.856,-0.08
4.858,-0.08
4.86,-0.07
4.862,-0.07
4.864,-0.07
4.866,-0.07
4.868,-0.08
4.87,-0.095
4.872,-0.11
4.874,-0.12
4.876,-0.13
4.878,-0.135
4.88,-0.13
4.882,-0.125
4.884,-0.115
4.886,-0.105
4.888,-0.095
4.89,-0.085
4.892,-0.08
4.894,-0.08
4.896,-0.075
4.898,-0.07
4.9,-0.06
4.902,-0.05
4.904,-0.04
4.906,-0.03
4.908,-0.02
4.91,-0.025
4.912,-0.03
4.914,-0.045
4.916,-0.07
4.918,-0.09
4.92,-0.11
4.922,-0.12
4.924,-0.13
4.926,-0.13
4.928,-0.125
4.93,-0.125
4.932,-0.12
4.934,-0.12
4.936,-0.125
4.938,-0.135
4.94,-0.145
4.942,-0.155
4.944,-0.16
4.946,-0.155
4.948,-0.14
4.95,-0.125
4.952,-0.105
4.954,-0.09
4.956,-0.08
4.958,-0.08
4.96,-0.085
4.962,-0.105
4.964,-0.125
4.966,-0.14
4.968,-0.155
4.97,-0.16
4.972,-0.155
4.974,-0.14
4.976,-0.12
4.978,-0.095
4.98,-0.08
4.982,-0.07
4.984,-0.07
4.986,-0.075
4.988,-0.09
4.99,-0.105
4.992,-0.115
4.994,-0.12
4.996,-0.12
4.998,-0.115
5,-0.11
5.002,-0.105
5.004,-0.105
5.006,-0.11
5.008,-0.12
5.01,-0.135
5.012,-0.15
5.014,-0.16
5.016,-0.165
5.018,-0.165
5.02,-0.155
5.022,-0.135
5.024,-0.115
5.026,-0.1
5.028,-0.085
5.03,-0.075
5.032,-0.075
5.034,-0.085
5.036,-0.1
5.038,-0.115
5.04,-0.13
5.042,-0.14
5.044,-0.15
5.046,-0.15
5.048,-0.15
5.05,-0.14
5.052,-0.135
5.054,-0.13
5.056,-0.12
5.058,-0.12
5.06,-0.12
5.062,-0.12
5.064,-0.125
5.066,-0.13
5.068,-0.135
5.07,-0.14
5.072,-0.135
5.074,-0.13
5.076,-0.12
5.078,-0.105
5.08,-0.085
5.082,-0.07
5.084,-0.05
5.086,-0.04
5.088,-0.04
5.09,-0.045
5.092,-0.055
5.094,-0.07
5.096,-0.085
5.098,-0.1
5.1,-0.105
5.102,-0.105
5.104,-0.09
5.106,-0.07
5.108,-0.05
5.11,-0.02
5.112,0
5.114,0.015
5.116,0.025
5.118,0.025
5.12,0.02
5.122,0.005
5.124,-0.01
5.126,-0.025
5.128,-0.04
5.13,-0.055
5.132,-0.07
5.134,-0.085
5.136,-0.1
5.138,-0.115
5.14,-0.13
5.142,-0.145
5.144,-0.15
5.146,-0.15
5.148,-0.145
5.15,-0.135
5.152,-0.12
5.154,-0.105
5.156,-0.095
5.158,-0.095
5.16,-0.1
5.162,-0.11
5.164,-0.12
5.166,-0.135
5.168,-0.145
5.17,-0.15
5.172,-0.15
5.174,-0.145
5.176,-0.14
5.178,-0.135
5.18,-0.14
5.182,-0.15
5.184,-0.165
5.186,-0.185
5.188,-0.2
5.19,-0.21
5.192,-0.215
5.194,-0.205
5.196,-0.19
5.198,-0.17
5.2,-0.155
5.202,-0.14
5.204,-0.135
5.206,-0.135
5.208,-0.145
5.21,-0.155
5.212,-0.16
5.214,-0.165
5.216,-0.16
5.218,-0.15
5.22,-0.135
5.222,-0.125
5.224,-0.115
5.226,-0.115
5.228,-0.12
5.23,-0.135
5.232,-0.15
5.234,-0.17
5.236,-0.18
5.238,-0.185
5.24,-0.185
5.242,-0.175
5.244,-0.165
5.246,-0.155
5.248,-0.145
5.25,-0.135
5.252,-0.13
5.254,-0.12
5.256,-0.095
5.258,-0.06
5.26,-0.01
5.262,0.06
5.264,0.14
5.266,0.23
5.268,0.32
5.27,0.4
5.272,0.47
5.274,0.51
5.276,0.535
5.278,0.535
5.28,0.515
5.282,0.48
5.284,0.43
5.286,0.375
5.288,0.315
5.29,0.25
5.292,0.18
5.294,0.105
5.296,0.03
5.298,-0.045
5.3,-0.115
5.302,-0.175
5.304,-0.225
5.306,-0.26
5.308,-0.275
5.31,-0.27
5.312,-0.25
5.314,-0.22
5.316,-0.185
5.318,-0.15
5.32,-0.115
5.322,-0.09
5.324,-0.07
5.326,-0.06
5.328,-0.06
5.33,-0.06
5.332,-0.07
5.334,-0.085
5.336,-0.095
5.338,-0.11
5.34,-0.12
5.342,-0.13
5.344,-0.135
5.346,-0.135
5.348,-0.135
5.35,-0.13
5.352,-0.12
5.354,-0.105
5.356,-0.09
5.358,-0.075
5.36,-0.065
5.362,-0.06
5.364,-0.06
5.366,-0.07
5.368,-0.09
5.37,-0.11
5.372,-0.14
5.374,-0.165
5.376,-0.185
5.378,-0.2
5.38,-0.205
5.382,-0.195
5.384,-0.175
5.386,-0.15
5.388,-0.12
5.39,-0.09
5.392,-0.065
5.394,-0.045
5.396,-0.035
5.398,-0.035
5.4,-0.035
5.402,-0.04
5.404,-0.04
5.406,-0.04
5.408,-0.03
5.41,-0.02
5.412,-0.015
5.414,-0.01
5.416,-0.01
5.418,-0.015
5.42,-0.03
5.422,-0.045
5.424,-0.055
5.426,-0.06
5.428,-0.055
5.43,-0.045
5.432,-0.025
5.434,0
5.436,0.02
5.438,0.03
5.44,0.035
5.442,0.03
5.444,0.015
5.446,-0.005
5.448,-0.02
5.45,-0.035
5.452,-0.04
5.454,-0.03
5.456,-0.015
5.458,0.005
5.46,0.02
5.462,0.04
5.464,0.045
5.466,0.045
5.468,0.04
5.47,0.03
5.472,0.015
5.474,0.01
5.476,0.005
5.478,0.015
5.48,0.035
5.482,0.065
5.484,0.1
5.486,0.14
5.488,0.175
5.49,0.21
5.492,0.235
5.494,0.25
5.496,0.255
5.498,0.25
5.5,0.235
5.502,0.22
5.504,0.2
5.506,0.185
5.508,0.175
5.51,0.175
5.512,0.185
5.514,0.195
5.516,0.215
5.518,0.235
5.52,0.25
5.522,0.26
5.524,0.265
5.526,0.26
5.528,0.25
5.53,0.235
5.532,0.215
5.534,0.2
5.536,0.19
5.538,0.18
5.54,0.18
5.542,0.18
5.544,0.19
5.546,0.195
5.548,0.21
5.55,0.22
5.552,0.23
5.554,0.24
5.556,0.245
5.558,0.25
5.56,0.245
5.562,0.24
5.564,0.235
5.566,0.22
5.568,0.21
5.57,0.2
5.572,0.19
5.574,0.175
5.576,0.165
5.578,0.155
5.58,0.145
5.582,0.13
5.584,0.115
5.586,0.095
5.588,0.085
5.59,0.07
5.592,0.065
5.594,0.06
5.596,0.06
5.598,0.055
5.6,0.05
5.602,0.04
5.604,0.02
5.606,-0.005
5.608,-0.03
5.61,-0.06
5.612,-0.08
5.614,-0.09
5.616,-0.09
5.618,-0.075
5.62,-0.055
5.622,-0.03
5.624,-0.005
5.626,0.01
5.628,0.025
5.63,0.025
5.632,0.02
5.634,0.005
5.636,-0.01
5.638,-0.02
5.64,-0.03
5.642,-0.03
5.644,-0.025
5.646,-0.015
5.648,-0.005
5.65,0.005
5.652,0.015
5.654,0.02
5.656,0.02
5.658,0.02
5.66,0.015
5.662,0.005
5.664,0
5.666,-0.01
5.668,-0.015
5.67,-0.02
5.672,-0.02
5.674,-0.01
5.676,0
5.678,0.015
5.68,0.03
5.682,0.04
5.684,0.045
5.686,0.045
5.688,0.035
5.69,0.015
5.692,-0.01
5.694,-0.035
5.696,-0.055
5.698,-0.07
5.7,-0.07
5.702,-0.065
5.704,-0.045
5.706,-0.025
5.708,-0.005
5.71,0.01
5.712,0.015
5.714,0.01
5.716,-0.005
5.718,-0.025
5.72,-0.04
5.722,-0.055
5.724,-0.055
5.726,-0.045
5.728,-0.025
5.73,-0.005
5.732,0.02
5.734,0.035
5.736,0.04
5.738,0.035
5.74,0.015
5.742,-0.01
5.744,-0.04
5.746,-0.06
5.748,-0.075
5.75,-0.075
5.752,-0.06
5.754,-0.045
5.756,-0.025
5.758,-0.01
5.76,-0.005
5.762,-0.01
5.764,-0.025
5.766,-0.05
5.768,-0.08
5.77,-0.105
5.772,-0.12
5.774,-0.12
5.776,-0.115
5.778,-0.1
5.78,-0.085
5.782,-0.065
5.784,-0.055
5.786,-0.045
5.788,-0.045
5.79,-0.04
5.792,-0.04
5.794,-0.035
5.796,-0.02
5.798,0
5.8,0.02
5.802,0.04
5.804,0.055
5.806,0.065
5.808,0.07
5.81,0.065
5.812,0.06
5.814,0.055
5.816,0.055
5.818,0.055
5.82,0.06
5.822,0.065
5.824,0.07
5.826,0.065
5.828,0.055
5.83,0.04
5.832,0.025
5.834,0.005
5.836,-0.01
5.838,-0.02
5.84,-0.02
5.842,-0.02
5.844,-0.015
5.846,-0.01
5.848,-0.015
5.85,-0.03
5.852,-0.05
5.854,-0.07
5.856,-0.095
5.858,-0.105
5.86,-0.11
5.862,-0.095
5.864,-0.075
5.866,-0.045
5.868,-0.02
5.87,-0.005
5.872,0
5.874,-0.02
5.876,-0.05
5.878,-0.085
5.88,-0.125
5.882,-0.155
5.884,-0.17
5.886,-0.165
5.888,-0.145
5.89,-0.11
5.892,-0.07
5.894,-0.035
5.896,-0.01
5.898,0
5.9,-0.005
5.902,-0.025
5.904,-0.045
5.906,-0.07
5.908,-0.085
5.91,-0.085
5.912,-0.08
5.914,-0.065
5.916,-0.05
5.918,-0.035
5.92,-0.03
5.922,-0.03
5.924,-0.04
5.926,-0.055
5.928,-0.07
5.93,-0.085
5.932,-0.09
5.934,-0.09
5.936,-0.085
5.938,-0.075
5.94,-0.065
5.942,-0.055
5.944,-0.055
5.946,-0.055
5.948,-0.055
5.95,-0.065
5.952,-0.065
5.954,-0.07
5.956,-0.06
5.958,-0.04
5.96,-0.01
5.962,0.035
5.964,0.095
5.966,0.165
5.968,0.245
5.97,0.325
5.972,0.405
5.974,0.475
5.976,0.53
5.978,0.565
5.98,0.575
5.982,0.56
5.984,0.525
5.986,0.475
5.988,0.41
5.99,0.34
5.992,0.27
5.994,0.2
5.996,0.135
5.998,0.07
6,0.015
6.002,-0.035
6.004,-0.08
6.006,-0.115
6.008,-0.14
6.01,-0.155
6.012,-0.155
6.014,-0.145
6.016,-0.125
6.018,-0.1
6.02,-0.075
6.022,-0.055
6.024,-0.04
6.026,-0.03
6.028,-0.035
6.03,-0.035
6.032,-0.04
6.034,-0.04
6.036,-0.04
6.038,-0.035
6.04,-0.03
6.042,-0.03
6.044,-0.04
6.046,-0.055
6.048,-0.08
6.05,-0.105
6.052,-0.125
6.054,-0.14
6.056,-0.135
6.058,-0.115
6.06,-0.085
6.062,-0.04
6.064,0.005
6.066,0.045
6.068,0.07
6.07,0.08
6.072,0.07
6.074,0.05
6.076,0.025
6.078,-0.005
6.08,-0.03
6.082,-0.045
6.084,-0.05
6.086,-0.05
6.088,-0.045
6.09,-0.04
6.092,-0.04
6.094,-0.035
6.096,-0.035
6.098,-0.035
6.1,-0.03
6.102,-0.025
6.104,-0.02
6.106,-0.01
6.108,-0.005
6.11,-0.005
6.112,-0.01
6.114,-0.02
6.116,-0.04
6.118,-0.055
6.12,-0.07
6.122,-0.075
6.124,-0.07
6.126,-0.05
6.128,-0.025
6.13,0
6.132,0.03
6.134,0.055
6.136,0.07
6.138,0.08
6.14,0.075
6.142,0.065
6.144,0.05
6.146,0.035
6.148,0.02
6.15,0.015
6.152,0.01
6.154,0.015
6.156,0.02
6.158,0.025
6.16,0.035
6.162,0.04
6.164,0.04
6.166,0.04
6.168,0.035
6.17,0.03
6.172,0.025
6.174,0.02
6.176,0.015
6.178,0.015
6.18,0.015
6.182,0.02
6.184,0.03
6.186,0.045
6.188,0.06
6.19,0.08
6.192,0.1
6.194,0.115
6.196,0.13
6.198,0.135
6.2,0.14
6.202,0.135
6.204,0.135
6.206,0.13
6.208,0.13
6.21,0.135
6.212,0.145
6.214,0.165
6.216,0.19
6.218,0.215
6.22,0.24
6.222,0.26
6.224,0.275
6.226,0.28
6.228,0.28
6.23,0.27
6.232,0.255
6.234,0.245
6.236,0.23
6.238,0.225
6.24,0.22
6.242,0.22
6.244,0.22
6.246,0.22
6.248,0.215
6.25,0.21
6.252,0.205
6.254,0.195
6.256,0.19
6.258,0.19
6.26,0.19
6.262,0.195
6.264,0.195
6.266,0.2
6.268,0.195
6.27,0.19
6.272,0.175
6.274,0.165
6.276,0.15
6.278,0.14
6.28,0.135
6.282,0.135
6.284,0.135
6.286,0.13
6.288,0.125
6.29,0.115
6.292,0.095
6.294,0.07
6.296,0.04
6.298,0.015
6.3,-0.005
6.302,-0.02
6.304,-0.02
6.306,-0.015
6.308,0
6.31,0.015
6.312,0.025
6.314,0.025
6.316,0.02
6.318,0.005
6.32,-0.02
6.322,-0.045
6.324,-0.07
6.326,-0.085
6.328,-0.09
6.33,-0.085
6.332,-0.07
6.334,-0.055
6.336,-0.035
6.338,-0.025
6.34,-0.02
6.342,-0.025
6.344,-0.035
6.346,-0.045
6.348,-0.06
6.35,-0.07
6.352,-0.075
6.354,-0.08
6.356,-0.075
6.358,-0.075
6.36,-0.075
6.362,-0.08
6.364,-0.09
6.366,-0.105
6.368,-0.125
6.37,-0.14
6.372,-0.15
6.374,-0.15
6.376,-0.145
6.378,-0.13
6.38,-0.105
6.382,-0.08
6.384,-0.055
6.386,-0.03
6.388,-0.02
6.39,-0.01
6.392,-0.01
6.394,-0.015
6.396,-0.02
6.398,-0.025
6.4,-0.03
6.402,-0.025
6.404,-0.025
6.406,-0.025
6.408,-0.025
6.41,-0.03
6.412,-0.04
6.414,-0.05
6.416,-0.06
6.418,-0.07
6.42,-0.075
6.422,-0.075
6.424,-0.07
6.426,-0.065
6.428,-0.06
6.43,-0.055
6.432,-0.055
6.434,-0.055
6.436,-0.06
6.438,-0.06
6.44,-0.06
6.442,-0.06
6.444,-0.055
6.446,-0.045
6.448,-0.035
6.45,-0.025
6.452,-0.015
6.454,-0.005
6.456,0
6.458,0
6.46,0.005
6.462,0.005
6.464,0.01
6.466,0.01
6.468,0.015
6.47,0.015
6.472,0.02
6.474,0.02
6.476,0.02
6.478,0.02
6.48,0.025
6.482,0.03
6.484,0.04
6.486,0.05
6.488,0.055
6.49,0.06
6.492,0.055
6.494,0.04
6.496,0.02
6.498,-0.005
6.5,-0.035
6.502,-0.06
6.504,-0.075
6.506,-0.085
6.508,-0.08
6.51,-0.07
6.512,-0.05
6.514,-0.03
6.516,-0.02
6.518,-0.01
6.52,-0.015
6.522,-0.035
6.524,-0.055
6.526,-0.085
6.528,-0.115
6.53,-0.135
6.532,-0.15
6.534,-0.15
6.536,-0.145
6.538,-0.13
6.54,-0.11
6.542,-0.09
6.544,-0.075
6.546,-0.065
6.548,-0.065
6.55,-0.07
6.552,-0.08
6.554,-0.09
6.556,-0.105
6.558,-0.11
6.56,-0.11
6.562,-0.11
6.564,-0.105
6.566,-0.095
6.568,-0.09
6.57,-0.09
6.572,-0.09
6.574,-0.095
6.576,-0.105
6.578,-0.115
6.58,-0.125
6.582,-0.13
6.584,-0.135
6.586,-0.13
6.588,-0.125
6.59,-0.12
6.592,-0.115
6.594,-0.115
6.596,-0.11
6.598,-0.11
6.6,-0.11
6.602,-0.105
6.604,-0.1
6.606,-0.095
6.608,-0.09
6.61,-0.085
6.612,-0.085
6.614,-0.085
6.616,-0.085
6.618,-0.09
6.62,-0.095
6.622,-0.1
6.624,-0.105
6.626,-0.1
6.628,-0.09
6.63,-0.075
6.632,-0.05
6.634,-0.015
6.636,0.03
6.638,0.08
6.64,0.14
6.642,0.21
6.644,0.28
6.646,0.35
6.648,0.415
6.65,0.465
6.652,0.5
6.654,0.51
6.656,0.5
6.658,0.47
6.66,0.42
6.662,0.365
6.664,0.31
6.666,0.255
6.668,0.21
6.67,0.17
6.672,0.14
6.674,0.115
6.676,0.09
6.678,0.06
6.68,0.02
6.682,-0.02
6.684,-0.06
6.686,-0.1
6.688,-0.125
6.69,-0.145
6.692,-0.145
6.694,-0.14
6.696,-0.125
6.698,-0.115
6.7,-0.105
6.702,-0.105
6.704,-0.115
6.706,-0.13
6.708,-0.15
6.71,-0.165
6.712,-0.165
6.714,-0.16
6.716,-0.14
6.718,-0.11
6.72,-0.08
6.722,-0.05
6.724,-0.025
6.726,-0.02
6.728,-0.02
6.73,-0.035
6.732,-0.06
6.734,-0.085
6.736,-0.105
6.738,-0.12
6.74,-0.125
6.742,-0.12
6.744,-0.11
6.746,-0.1
6.748,-0.095
6.75,-0.095
6.752,-0.1
6.754,-0.115
6.756,-0.135
6.758,-0.155
6.76,-0.17
6.762,-0.17
6.764,-0.16
6.766,-0.14
6.768,-0.11
6.77,-0.08
6.772,-0.05
6.774,-0.03
6.776,-0.02
6.778,-0.03
6.78,-0.045
6.782,-0.07
6.784,-0.095
6.786,-0.11
6.788,-0.12
6.79,-0.12
6.792,-0.105
6.794,-0.085
6.796,-0.06
6.798,-0.04
6.8,-0.03
6.802,-0.03
6.804,-0.035
6.806,-0.05
6.808,-0.065
6.81,-0.08
6.812,-0.09
6.814,-0.095
6.816,-0.09
6.818,-0.085
6.82,-0.075
6.822,-0.065
6.824,-0.06
6.826,-0.055
6.828,-0.055
6.83,-0.055
6.832,-0.055
6.834,-0.05
6.836,-0.045
6.838,-0.03
6.84,-0.015
6.842,0
6.844,0.01
6.846,0.02
6.848,0.02
6.85,0.015
6.852,0.005
6.854,-0.01
6.856,-0.03
6.858,-0.045
6.86,-0.055
6.862,-0.06
6.864,-0.055
6.866,-0.045
6.868,-0.03
6.87,-0.005
6.872,0.015
6.874,0.04
6.876,0.06
6.878,0.075
6.88,0.09
6.882,0.095
6.884,0.095
6.886,0.09
6.888,0.085
6.89,0.08
6.892,0.08
6.894,0.085
6.896,0.095
6.898,0.11
6.9,0.12
6.902,0.135
6.904,0.145
6.906,0.15
6.908,0.15
6.91,0.145
6.912,0.13
6.914,0.12
6.916,0.11
6.918,0.105
6.92,0.11
6.922,0.12
6.924,0.135
6.926,0.15
6.928,0.165
6.93,0.175
6.932,0.175
6.934,0.165
6.936,0.155
6.938,0.135
6.94,0.115
6.942,0.1
6.944,0.09
6.946,0.08
6.948,0.08
6.95,0.075
6.952,0.07
6.954,0.065
6.956,0.05
6.958,0.03
6.96,0.01
6.962,-0.015
6.964,-0.03
6.966,-0.04
6.968,-0.04
6.97,-0.035
6.972,-0.025
6.974,-0.01
6.976,-0.005
6.978,-0.005
6.98,-0.015
6.982,-0.035
6.984,-0.06
6.986,-0.085
6.988,-0.105
6.99,-0.115
6.992,-0.11
6.994,-0.095
6.996,-0.075
6.998,-0.05
7,-0.035
7.002,-0.03
7.004,-0.035
7.006,-0.06
7.008,-0.09
7.01,-0.12
7.012,-0.145
7.014,-0.16
7.016,-0.155
7.018,-0.14
7.02,-0.12
7.022,-0.09
7.024,-0.065
7.026,-0.055
7.028,-0.05
7.03,-0.065
7.032,-0.085
7.034,-0.11
7.036,-0.13
7.038,-0.14
7.04,-0.14
7.042,-0.13
7.044,-0.115
7.046,-0.095
7.048,-0.075
7.05,-0.065
7.052,-0.06
7.054,-0.065
7.056,-0.07
7.058,-0.08
7.06,-0.09
7.062,-0.1
7.064,-0.1
7.066,-0.105
7.068,-0.1
7.07,-0.1
7.072,-0.1
7.074,-0.095
7.076,-0.095
7.078,-0.085
7.08,-0.08
7.082,-0.075
7.084,-0.065
7.086,-0.06
7.088,-0.06
7.09,-0.06
7.092,-0.065
7.094,-0.075
7.096,-0.08
7.098,-0.085
7.1,-0.08
7.102,-0.07
7.104,-0.05
7.106,-0.03
7.108,-0.01
7.11,0.005
7.112,0.015
7.114,0.015
7.116,0.01
7.118,0
7.12,-0.01
7.122,-0.02
7.124,-0.03
7.126,-0.03
7.128,-0.03
7.13,-0.03
7.132,-0.03
7.134,-0.035
7.136,-0.045
7.138,-0.055
7.14,-0.065
7.142,-0.075
7.144,-0.085
7.146,-0.085
7.148,-0.085
7.15,-0.08
7.152,-0.08
7.154,-0.08
7.156,-0.085
7.158,-0.095
7.16,-0.11
7.162,-0.12
7.164,-0.13
7.166,-0.14
7.168,-0.14
7.17,-0.135
7.172,-0.125
7.174,-0.12
7.176,-0.11
7.178,-0.105
7.18,-0.1
7.182,-0.1
7.184,-0.1
7.186,-0.1
7.188,-0.095
7.19,-0.09
7.192,-0.085
7.194,-0.08
7.196,-0.075
7.198,-0.075
7.2,-0.08
7.202,-0.085
7.204,-0.09
7.206,-0.09
7.208,-0.09
7.21,-0.09
7.212,-0.085
7.214,-0.08
7.216,-0.08
7.218,-0.09
7.22,-0.11
7.222,-0.135
7.224,-0.165
7.226,-0.2
7.228,-0.225
7.23,-0.24
7.232,-0.235
7.234,-0.22
7.236,-0.19
7.238,-0.15
7.24,-0.11
7.242,-0.07
7.244,-0.045
7.246,-0.03
7.248,-0.025
7.25,-0.03
7.252,-0.04
7.254,-0.05
7.256,-0.055
7.258,-0.055
7.26,-0.05
7.262,-0.04
7.264,-0.025
7.266,-0.015
7.268,0.005
7.27,0.025
7.272,0.05
7.274,0.085
7.276,0.13
7.278,0.185
7.28,0.25
7.282,0.315
7.284,0.375
7.286,0.425
7.288,0.455
7.29,0.465
7.292,0.45
7.294,0.41
7.296,0.35
7.298,0.275
7.3,0.205
7.302,0.135
7.304,0.075
7.306,0.025
7.308,-0.005
7.31,-0.025
7.312,-0.035
7.314,-0.04
7.316,-0.05
7.318,-0.055
7.32,-0.065
7.322,-0.08
7.324,-0.09
7.326,-0.1
7.328,-0.1
7.33,-0.09
7.332,-0.075
7.334,-0.05
7.336,-0.025
7.338,-0.005
7.34,0.005
7.342,0.01
7.344,0
7.346,-0.02
7.348,-0.045
7.35,-0.07
7.352,-0.085
7.354,-0.095
7.356,-0.09
7.358,-0.075
7.36,-0.05
7.362,-0.02
7.364,0.01
7.366,0.03
7.368,0.035
7.37,0.03
7.372,0.015
7.374,-0.015
7.376,-0.04
7.378,-0.07
7.38,-0.085
7.382,-0.095
7.384,-0.09
7.386,-0.08
7.388,-0.06
7.39,-0.045
7.392,-0.03
7.394,-0.025
7.396,-0.025
7.398,-0.04
7.4,-0.06
7.402,-0.08
7.404,-0.1
7.406,-0.115
7.408,-0.12
7.41,-0.115
7.412,-0.095
7.414,-0.075
7.416,-0.05
7.418,-0.025
7.42,-0.01
7.422,0
7.424,0
7.426,-0.01
7.428,-0.025
7.43,-0.04
7.432,-0.06
7.434,-0.07
7.436,-0.07
7.438,-0.065
7.44,-0.055
7.442,-0.035
7.444,-0.015
7.446,0.01
7.448,0.025
7.45,0.035
7.452,0.04
7.454,0.035
7.456,0.025
7.458,0.01
7.46,-0.005
7.462,-0.02
7.464,-0.03
7.466,-0.035
7.468,-0.035
7.47,-0.03
7.472,-0.02
7.474,-0.015
7.476,-0.01
7.478,-0.01
7.48,-0.01
7.482,-0.01
7.484,-0.015
7.486,-0.01
7.488,-0.005
7.49,0.01
7.492,0.03
7.494,0.055
7.496,0.075
7.498,0.095
7.5,0.11
7.502,0.115
7.504,0.115
7.506,0.11
7.508,0.1
7.51,0.1
7.512,0.105
7.514,0.115
7.516,0.135
7.518,0.155
7.52,0.18
7.522,0.195
7.524,0.2
7.526,0.195
7.528,0.18
7.53,0.165
7.532,0.145
7.534,0.135
7.536,0.13
7.538,0.14
7.54,0.155
7.542,0.18
7.544,0.2
7.546,0.22
7.548,0.23
7.55,0.225
7.552,0.215
7.554,0.2
7.556,0.185
7.558,0.175
7.56,0.17
7.562,0.17
7.564,0.18
7.566,0.19
7.568,0.195
7.57,0.195
7.572,0.19
7.574,0.18
7.576,0.165
7.578,0.145
7.58,0.13
7.582,0.115
7.584,0.11
7.586,0.11
7.588,0.11
7.59,0.11
7.592,0.11
7.594,0.105
7.596,0.095
7.598,0.085
7.6,0.075
7.602,0.065
7.604,0.055
7.606,0.045
7.608,0.04
7.61,0.03
7.612,0.02
7.614,0.005
7.616,-0.01
7.618,-0.02
7.62,-0.035
7.622,-0.04
7.624,-0.035
7.626,-0.025
7.628,-0.005
7.63,0.015
7.632,0.03
7.634,0.045
7.636,0.045
7.638,0.035
7.64,0.02
7.642,-0.005
7.644,-0.03
7.646,-0.05
7.648,-0.06
7.65,-0.055
7.652,-0.04
7.654,-0.015
7.656,0.005
7.658,0.03
7.66,0.04
7.662,0.045
7.664,0.035
7.666,0.02
7.668,-0.005
7.67,-0.025
7.672,-0.045
7.674,-0.06
7.676,-0.065
7.678,-0.07
7.68,-0.065
7.682,-0.06
7.684,-0.055
7.686,-0.05
7.688,-0.05
7.69,-0.045
7.692,-0.045
7.694,-0.04
7.696,-0.04
7.698,-0.035
7.7,-0.03
7.702,-0.025
7.704,-0.02
7.706,-0.01
7.708,-0.005
7.71,0.01
7.712,0.02
7.714,0.035
7.716,0.045
7.718,0.06
7.72,0.065
7.722,0.07
7.724,0.075
7.726,0.07
7.728,0.07
7.73,0.065
7.732,0.06
7.734,0.06
7.736,0.06
7.738,0.06
7.74,0.06
7.742,0.055
7.744,0.045
7.746,0.035
7.748,0.025
7.75,0.015
7.752,0.005
7.754,0
7.756,-0.005
7.758,-0.005
7.76,-0.005
7.762,-0.01
7.764,-0.01
7.766,-0.02
7.768,-0.03
7.77,-0.045
7.772,-0.055
7.774,-0.07
7.776,-0.08
7.778,-0.085
7.78,-0.085
7.782,-0.075
7.784,-0.065
7.786,-0.05
7.788,-0.04
7.79,-0.025
7.792,-0.015
7.794,-0.015
7.796,-0.015
7.798,-0.02
7.8,-0.03
7.802,-0.04
7.804,-0.05
7.806,-0.055
7.808,-0.055
7.81,-0.055
7.812,-0.055
7.814,-0.05
7.816,-0.05
7.818,-0.05
7.82,-0.055
7.822,-0.06
7.824,-0.07
7.826,-0.08
7.828,-0.085
7.83,-0.09
7.832,-0.09
7.834,-0.085
7.836,-0.085
7.838,-0.08
7.84,-0.08
7.842,-0.085
7.844,-0.09
7.846,-0.095
7.848,-0.1
7.85,-0.105
7.852,-0.105
7.854,-0.105
7.856,-0.105
7.858,-0.1
7.86,-0.1
7.862,-0.1
7.864,-0.1
7.866,-0.1
7.868,-0.095
7.87,-0.09
7.872,-0.08
7.874,-0.065
7.876,-0.045
7.878,-0.025
7.88,-0.005
7.882,0.02
7.884,0.04
7.886,0.06
7.888,0.09
7.89,0.125
7.892,0.165
7.894,0.22
7.896,0.275
7.898,0.335
7.9,0.39
7.902,0.43
7.904,0.455
7.906,0.465
7.908,0.455
7.91,0.435
7.912,0.4
7.914,0.365
7.916,0.325
7.918,0.285
7.92,0.245
7.922,0.205
7.924,0.17
7.926,0.13
7.928,0.095
7.93,0.06
7.932,0.03
7.934,0.005
7.936,-0.01
7.938,-0.015
7.94,-0.015
7.942,-0.005
7.944,0.005
7.946,0.01
7.948,0.01
7.95,0.005
7.952,-0.005
7.954,-0.02
7.956,-0.04
7.958,-0.055
7.96,-0.065
7.962,-0.07
7.964,-0.07
7.966,-0.065
7.968,-0.06
7.97,-0.055
7.972,-0.045
7.974,-0.045
7.976,-0.045
7.978,-0.05
7.98,-0.055
7.982,-0.06
7.984,-0.065
7.986,-0.065
7.988,-0.07
7.99,-0.07
7.992,-0.065
7.994,-0.065
7.996,-0.06
7.998,-0.055
8,-0.05
8.002,-0.04
8.004,-0.025
8.006,-0.01
8.008,0
8.01,0.015
8.012,0.025
8.014,0.03
8.016,0.03
8.018,0.03
8.02,0.02
8.022,0.015
8.024,0.01
8.026,0.01
8.028,0.01
8.03,0.02
8.032,0.025
8.034,0.03
8.036,0.03
8.038,0.025
8.04,0.01
8.042,-0.01
8.044,-0.035
8.046,-0.055
8.048,-0.075
8.05,-0.085
8.052,-0.085
8.054,-0.07
8.056,-0.05
8.058,-0.03
8.06,-0.01
8.062,0.005
8.064,0.005
8.066,0
8.068,-0.015
8.07,-0.035
8.072,-0.05
8.074,-0.065
8.076,-0.065
8.078,-0.06
8.08,-0.045
8.082,-0.03
8.084,-0.01
8.086,0.005
8.088,0.015
8.09,0.02
8.092,0.02
8.094,0.02
8.096,0.025
8.098,0.035
8.1,0.045
8.102,0.065
8.104,0.085
8.106,0.1
8.108,0.11
8.11,0.115
8.112,0.115
8.114,0.105
8.116,0.09
8.118,0.08
8.12,0.07
8.122,0.065
8.124,0.065
8.126,0.07
8.128,0.075
8.13,0.085
8.132,0.095
8.134,0.105
8.136,0.115
8.138,0.125
8.14,0.135
8.142,0.145
8.144,0.15
8.146,0.155
8.148,0.155
8.15,0.15
8.152,0.14
8.154,0.125
8.156,0.115
8.158,0.11
8.16,0.11
8.162,0.125
8.164,0.14
8.166,0.17
8.168,0.2
8.17,0.225
8.172,0.245
8.174,0.25
8.176,0.25
8.178,0.235
8.18,0.21
8.182,0.185
8.184,0.165
8.186,0.145
8.188,0.135
8.19,0.135
8.192,0.14
8.194,0.145
8.196,0.145
8.198,0.145
8.2,0.135
8.202,0.12
8.204,0.1
8.206,0.08
8.208,0.06
8.21,0.045
8.212,0.04
8.214,0.04
8.216,0.04
8.218,0.045
8.22,0.05
8.222,0.05
8.224,0.045
8.226,0.03
8.228,0.015
8.23,-0.005
8.232,-0.03
8.234,-0.045
8.236,-0.055
8.238,-0.06
8.24,-0.055
8.242,-0.045
8.244,-0.03
8.246,-0.01
8.248,0.01
8.25,0.025
8.252,0.035
8.254,0.04
8.256,0.04
8.258,0.03
8.26,0.015
8.262,-0.005
8.264,-0.025
8.266,-0.045
8.268,-0.06
8.27,-0.07
8.272,-0.075
8.274,-0.07
8.276,-0.065
8.278,-0.055
8.28,-0.045
8.282,-0.045
8.284,-0.045
8.286,-0.055
8.288,-0.07
8.29,-0.085
8.292,-0.095
8.294,-0.105
8.296,-0.1
8.298,-0.085
8.3,-0.06
8.302,-0.03
8.304,0
8.306,0.025
8.308,0.045
8.31,0.05
8.312,0.045
8.314,0.03
8.316,0.015
8.318,-0.005
8.32,-0.02
8.322,-0.03
8.324,-0.035
8.326,-0.03
8.328,-0.02
8.33,-0.015
8.332,-0.015
8.334,-0.015
8.336,-0.02
8.338,-0.025
8.34,-0.03
8.342,-0.025
8.344,-0.02
8.346,-0.005
8.348,0.01
8.35,0.02
8.352,0.03
8.354,0.025
8.356,0.015
8.358,-0.005
8.36,-0.03
8.362,-0.055
8.364,-0.075
8.366,-0.085
8.368,-0.085
8.37,-0.075
8.372,-0.055
8.374,-0.035
8.376,-0.015
8.378,0
8.38,0.005
8.382,0.005
8.384,-0.005
8.386,-0.025
8.388,-0.04
8.39,-0.065
8.392,-0.085
8.394,-0.11
8.396,-0.135
8.398,-0.155
8.4,-0.17
8.402,-0.18
8.404,-0.185
8.406,-0.175
8.408,-0.16
8.41,-0.135
8.412,-0.115
8.414,-0.095
8.416,-0.085
8.418,-0.09
8.42,-0.105
8.422,-0.125
8.424,-0.15
8.426,-0.17
8.428,-0.175
8.43,-0.165
8.432,-0.145
8.434,-0.11
8.436,-0.075
8.438,-0.045
8.44,-0.025
8.442,-0.025
8.444,-0.04
8.446,-0.065
8.448,-0.1
8.45,-0.13
8.452,-0.155
8.454,-0.17
8.456,-0.17
8.458,-0.155
8.46,-0.135
8.462,-0.115
8.464,-0.1
8.466,-0.09
8.468,-0.085
8.47,-0.085
8.472,-0.09
8.474,-0.1
8.476,-0.105
8.478,-0.105
8.48,-0.105
8.482,-0.11
8.484,-0.11
8.486,-0.115
8.488,-0.115
8.49,-0.12
8.492,-0.115
8.494,-0.105
8.496,-0.08
8.498,-0.04
8.5,0.015
8.502,0.08
8.504,0.155
8.506,0.23
8.508,0.295
8.51,0.355
8.512,0.4
8.514,0.42
8.516,0.425
8.518,0.415
8.52,0.385
8.522,0.355
8.524,0.315
8.526,0.275
8.528,0.235
8.53,0.2
8.532,0.165
8.534,0.125
8.536,0.085
8.538,0.045
8.54,0
8.542,-0.04
8.544,-0.075
8.546,-0.1
8.548,-0.11
8.55,-0.11
8.552,-0.1
8.554,-0.08
8.556,-0.06
8.558,-0.045
8.56,-0.045
8.562,-0.05
8.564,-0.065
8.566,-0.09
8.568,-0.115
8.57,-0.135
8.572,-0.145
8.574,-0.15
8.576,-0.145
8.578,-0.135
8.58,-0.12
8.582,-0.11
8.584,-0.1
8.586,-0.095
8.588,-0.09
8.59,-0.09
8.592,-0.09
8.594,-0.09
8.596,-0.09
8.598,-0.085
8.6,-0.085
8.602,-0.08
8.604,-0.085
8.606,-0.09
8.608,-0.095
8.61,-0.105
8.612,-0.11
8.614,-0.115
8.616,-0.115
8.618,-0.115
8.62,-0.115
8.622,-0.11
8.624,-0.105
8.626,-0.105
8.628,-0.105
8.63,-0.105
8.632,-0.105
8.634,-0.1
8.636,-0.095
8.638,-0.09
8.64,-0.08
8.642,-0.07
8.644,-0.06
8.646,-0.055
8.648,-0.05
8.65,-0.05
8.652,-0.05
8.654,-0.055
8.656,-0.06
8.658,-0.065
8.66,-0.07
8.662,-0.075
8.664,-0.075
8.666,-0.08
8.668,-0.08
8.67,-0.08
8.672,-0.085
8.674,-0.085
8.676,-0.09
8.678,-0.095
8.68,-0.1
8.682,-0.105
8.684,-0.11
8.686,-0.105
8.688,-0.1
8.69,-0.09
8.692,-0.07
8.694,-0.055
8.696,-0.035
8.698,-0.025
8.7,-0.015
8.702,-0.01
8.704,-0.015
8.706,-0.02
8.708,-0.025
8.71,-0.035
8.712,-0.035
8.714,-0.035
8.716,-0.03
8.718,-0.025
8.72,-0.015
8.722,-0.005
8.724,0
8.726,0.005
8.728,0.005
8.73,0.01
8.732,0.02
8.734,0.03
8.736,0.045
8.738,0.06
8.74,0.075
8.742,0.085
8.744,0.09
8.746,0.095
8.748,0.095
8.75,0.095
8.752,0.095
8.754,0.095
8.756,0.1
8.758,0.105
8.76,0.11
8.762,0.115
8.764,0.115
8.766,0.11
8.768,0.105
8.77,0.1
8.772,0.1
8.774,0.105
8.776,0.115
8.778,0.135
8.78,0.155
8.782,0.175
8.784,0.185
8.786,0.185
8.788,0.175
8.79,0.15
8.792,0.12
8.794,0.085
8.796,0.06
8.798,0.05
8.8,0.055
8.802,0.07
8.804,0.1
8.806,0.13
8.808,0.155
8.81,0.165
8.812,0.155
8.814,0.13
8.816,0.085
8.818,0.04
8.82,-0.005
8.822,-0.04
8.824,-0.06
8.826,-0.06
8.828,-0.05
8.83,-0.025
8.832,0.005
8.834,0.025
8.836,0.035
8.838,0.035
8.84,0.02
8.842,-0.005
8.844,-0.03
8.846,-0.055
8.848,-0.075
8.85,-0.085
8.852,-0.09
8.854,-0.09
8.856,-0.085
8.858,-0.08
8.86,-0.075
8.862,-0.075
8.864,-0.075
8.866,-0.075
8.868,-0.08
8.87,-0.08
8.872,-0.085
8.874,-0.085
8.876,-0.09
8.878,-0.095
8.88,-0.1
8.882,-0.105
8.884,-0.105
8.886,-0.105
8.888,-0.095
8.89,-0.08
8.892,-0.06
8.894,-0.045
8.896,-0.03
8.898,-0.02
8.9,-0.015
8.902,-0.02
8.904,-0.03
8.906,-0.04
8.908,-0.05
8.91,-0.06
8.912,-0.065
8.914,-0.065
8.916,-0.065
8.918,-0.065
8.92,-0.065
8.922,-0.065
8.924,-0.06
8.926,-0.06
8.928,-0.06
8.93,-0.05
8.932,-0.04
8.934,-0.025
8.936,-0.01
8.938,0.005
8.94,0.02
8.942,0.03
8.944,0.035
8.946,0.03
8.948,0.025
8.95,0.02
8.952,0.01
8.954,0
8.956,-0.01
8.958,-0.015
8.96,-0.02
8.962,-0.02
8.964,-0.015
8.966,-0.015
8.968,-0.01
8.97,-0.01
8.972,-0.01
8.974,-0.015
8.976,-0.025
8.978,-0.035
8.98,-0.045
8.982,-0.06
8.984,-0.07
8.986,-0.075
8.988,-0.075
8.99,-0.075
8.992,-0.07
8.994,-0.065
8.996,-0.06
8.998,-0.06
9,-0.065
9.002,-0.07
9.004,-0.08
9.006,-0.085
9.008,-0.085
9.01,-0.085
9.012,-0.08
9.014,-0.07
9.016,-0.065
9.018,-0.06
9.02,-0.065
9.022,-0.07
9.024,-0.085
9.026,-0.1
9.028,-0.11
9.03,-0.125
9.032,-0.13
9.034,-0.13
9.036,-0.125
9.038,-0.115
9.04,-0.105
9.042,-0.1
9.044,-0.095
9.046,-0.095
9.048,-0.095
9.05,-0.1
9.052,-0.095
9.054,-0.09
9.056,-0.085
9.058,-0.075
9.06,-0.065
9.062,-0.06
9.064,-0.06
9.066,-0.07
9.068,-0.085
9.07,-0.105
9.072,-0.13
9.074,-0.15
9.076,-0.165
9.078,-0.17
9.08,-0.165
9.082,-0.15
9.084,-0.13
9.086,-0.11
9.088,-0.085
9.09,-0.07
9.092,-0.06
9.094,-0.06
9.096,-0.06
9.098,-0.065
9.1,-0.07
9.102,-0.06
9.104,-0.04
9.106,-0.005
9.108,0.045
9.11,0.115
9.112,0.195
9.114,0.275
9.116,0.355
9.118,0.425
9.12,0.475
9.122,0.5
9.124,0.505
9.126,0.49
9.128,0.455
9.13,0.41
9.132,0.355
9.134,0.305
9.136,0.25
9.138,0.21
9.14,0.17
9.142,0.13
9.144,0.095
9.146,0.06
9.148,0.02
9.15,-0.02
9.152,-0.06
9.154,-0.1
9.156,-0.13
9.158,-0.15
9.16,-0.16
9.162,-0.155
9.164,-0.145
9.166,-0.13
9.168,-0.11
9.17,-0.09
9.172,-0.08
9.174,-0.07
9.176,-0.07
9.178,-0.065
9.18,-0.065
9.182,-0.06
9.184,-0.055
9.186,-0.045
9.188,-0.035
9.19,-0.03
9.192,-0.025
9.194,-0.035
9.196,-0.045
9.198,-0.06
9.2,-0.075
9.202,-0.09
9.204,-0.095
9.206,-0.095
9.208,-0.085
9.21,-0.07
9.212,-0.06
9.214,-0.05
9.216,-0.045
9.218,-0.055
9.22,-0.07
9.222,-0.09
9.224,-0.105
9.226,-0.12
9.228,-0.12
9.23,-0.115
9.232,-0.1
9.234,-0.08
9.236,-0.06
9.238,-0.045
9.24,-0.04
9.242,-0.045
9.244,-0.055
9.246,-0.07
9.248,-0.085
9.25,-0.09
9.252,-0.09
9.254,-0.08
9.256,-0.065
9.258,-0.05
9.26,-0.035
9.262,-0.03
9.264,-0.03
9.266,-0.035
9.268,-0.045
9.27,-0.055
9.272,-0.055
9.274,-0.05
9.276,-0.04
9.278,-0.02
9.28,0.005
9.282,0.025
9.284,0.035
9.286,0.04
9.288,0.03
9.29,0.015
9.292,-0.005
9.294,-0.02
9.296,-0.03
9.298,-0.035
9.3,-0.025
9.302,-0.005
9.304,0.01
9.306,0.025
9.308,0.035
9.31,0.04
9.312,0.035
9.314,0.02
9.316,0.01
9.318,0.005
9.32,0.005
9.322,0.015
9.324,0.025
9.326,0.045
9.328,0.06
9.33,0.075
9.332,0.075
9.334,0.075
9.336,0.07
9.338,0.065
9.34,0.065
9.342,0.07
9.344,0.085
9.346,0.105
9.348,0.125
9.35,0.145
9.352,0.16
9.354,0.16
9.356,0.155
9.358,0.145
9.36,0.135
9.362,0.125
9.364,0.12
9.366,0.125
9.368,0.135
9.37,0.15
9.372,0.165
9.374,0.175
9.376,0.18
9.378,0.18
9.38,0.175
9.382,0.17
9.384,0.165
9.386,0.165
9.388,0.17
9.39,0.175
9.392,0.185
9.394,0.19
9.396,0.19
9.398,0.185
9.4,0.175
9.402,0.16
9.404,0.14
9.406,0.125
9.408,0.11
9.41,0.1
9.412,0.095
9.414,0.09
9.416,0.085
9.418,0.085
9.42,0.08
9.422,0.075
9.424,0.07
9.426,0.065
9.428,0.065
9.43,0.06
9.432,0.05
9.434,0.045
9.436,0.03
9.438,0.02
9.44,0.005
9.442,-0.015
9.444,-0.025
9.446,-0.04
9.448,-0.045
9.45,-0.045
9.452,-0.045
9.454,-0.035
9.456,-0.03
9.458,-0.02
9.46,-0.015
9.462,-0.015
9.464,-0.015
9.466,-0.02
9.468,-0.025
9.47,-0.03
9.472,-0.04
9.474,-0.045
9.476,-0.05
9.478,-0.055
9.48,-0.06
9.482,-0.06
9.484,-0.06
9.486,-0.06
9.488,-0.055
9.49,-0.05
9.492,-0.05
9.494,-0.045
9.496,-0.045
9.498,-0.045
9.5,-0.045
9.502,-0.05
9.504,-0.045
9.506,-0.045
9.508,-0.045
9.51,-0.045
9.512,-0.045
9.514,-0.05
9.516,-0.055
9.518,-0.065
9.52,-0.07
9.522,-0.075
9.524,-0.075
9.526,-0.07
9.528,-0.065
9.53,-0.055
9.532,-0.045
9.534,-0.04
9.536,-0.035
9.538,-0.04
9.54,-0.045
9.542,-0.055
9.544,-0.065
9.546,-0.075
9.548,-0.075
9.55,-0.07
9.552,-0.06
9.554,-0.045
9.556,-0.025
9.558,-0.005
9.56,0.01
9.562,0.015
9.564,0.02
9.566,0.015
9.568,0.01
9.57,0.005
9.572,0.005
9.574,0.005
9.576,0.005
9.578,0.01
9.58,0.015
9.582,0.015
9.584,0.01
9.586,0.005
9.588,-0.005
9.59,-0.02
9.592,-0.03
9.594,-0.03
9.596,-0.025
9.598,-0.015
9.6,0.005
9.602,0.02
9.604,0.035
9.606,0.045
9.608,0.04
9.61,0.03
9.612,0.015
9.614,-0.005
9.616,-0.025
9.618,-0.04
9.62,-0.05
9.622,-0.05
9.624,-0.05
9.626,-0.045
9.628,-0.045
9.63,-0.05
9.632,-0.06
9.634,-0.08
9.636,-0.095
9.638,-0.115
9.64,-0.13
9.642,-0.13
9.644,-0.125
9.646,-0.115
9.648,-0.095
9.65,-0.075
9.652,-0.06
9.654,-0.045
9.656,-0.04
9.658,-0.04
9.66,-0.045
9.662,-0.05
9.664,-0.06
9.666,-0.065
9.668,-0.07
9.67,-0.07
9.672,-0.07
9.674,-0.065
9.676,-0.065
9.678,-0.06
9.68,-0.06
9.682,-0.06
9.684,-0.055
9.686,-0.055
9.688,-0.055
9.69,-0.055
9.692,-0.055
9.694,-0.055
9.696,-0.055
9.698,-0.055
9.7,-0.055
9.702,-0.055
9.704,-0.055
9.706,-0.055
9.708,-0.06
9.71,-0.06
9.712,-0.07
9.714,-0.075
9.716,-0.085
9.718,-0.095
9.72,-0.095
9.722,-0.095
9.724,-0.08
9.726,-0.055
9.728,-0.01
9.73,0.045
9.732,0.115
9.734,0.195
9.736,0.275
9.738,0.355
9.74,0.425
9.742,0.475
9.744,0.505
9.746,0.515
9.748,0.5
9.75,0.47
9.752,0.43
9.754,0.385
9.756,0.34
9.758,0.3
9.76,0.27
9.762,0.24
9.764,0.215
9.766,0.19
9.768,0.16
9.77,0.12
9.772,0.08
9.774,0.04
9.776,0
9.778,-0.03
9.78,-0.05
9.782,-0.055
9.784,-0.05
9.786,-0.04
9.788,-0.03
9.79,-0.025
9.792,-0.025
9.794,-0.04
9.796,-0.06
9.798,-0.085
9.8,-0.1
9.802,-0.11
9.804,-0.105
9.806,-0.09
9.808,-0.06
9.81,-0.03
9.812,-0.005
9.814,0.01
9.816,0.01
9.818,-0.005
9.82,-0.03
9.822,-0.06
9.824,-0.085
9.826,-0.1
9.828,-0.1
9.83,-0.085
9.832,-0.06
9.834,-0.035
9.836,-0.01
9.838,0.005
9.84,0.005
9.842,-0.005
9.844,-0.025
9.846,-0.05
9.848,-0.07
9.85,-0.075
9.852,-0.075
9.854,-0.06
9.856,-0.035
9.858,-0.015
9.86,0.005
9.862,0.01
9.864,0.005
9.866,-0.015
9.868,-0.04
9.87,-0.07
9.872,-0.09
9.874,-0.105
9.876,-0.11
9.878,-0.1
9.88,-0.085
9.882,-0.07
9.884,-0.05
9.886,-0.04
9.888,-0.04
9.89,-0.04
9.892,-0.045
9.894,-0.05
9.896,-0.05
9.898,-0.045
9.9,-0.03
9.902,-0.015
9.904,0.005
9.906,0.02
9.908,0.035
9.91,0.04
9.912,0.045
9.914,0.045
9.916,0.045
9.918,0.045
9.92,0.045
9.922,0.05
9.924,0.055
9.926,0.065
9.928,0.07
9.93,0.07
9.932,0.065
9.934,0.06
9.936,0.05
9.938,0.04
9.94,0.03
9.942,0.025
9.944,0.02
9.946,0.025
9.948,0.03
9.95,0.04
9.952,0.05
9.954,0.055
9.956,0.06
9.958,0.06
9.96,0.055
9.962,0.05
9.964,0.045
9.966,0.04
9.968,0.04
9.97,0.045
9.972,0.06
9.974,0.08
9.976,0.11
9.978,0.14
9.98,0.17
9.982,0.205
9.984,0.225
9.986,0.24
9.988,0.245
9.99,0.24
9.992,0.225
9.994,0.2
9.996,0.18
9.998,0.16
