0,-0.03
0.002,0
0.004,0.02
0.006,0.03
0.008,0.035
0.01,0.035
0.012,0.025
0.014,0.015
0.016,0.005
0.018,0
0.02,-0.005
0.022,-0.005
0.024,-0.01
0.026,-0.02
0.028,-0.03
0.03,-0.04
0.032,-0.055
0.034,-0.06
0.036,-0.06
0.038,-0.055
0.04,-0.045
0.042,-0.03
0.044,-0.02
0.046,-0.015
0.048,-0.02
0.05,-0.035
0.052,-0.055
0.054,-0.075
0.056,-0.09
0.058,-0.105
0.06,-0.105
0.062,-0.1
0.064,-0.085
0.066,-0.07
0.068,-0.06
0.07,-0.055
0.072,-0.055
0.074,-0.06
0.076,-0.07
0.078,-0.075
0.08,-0.07
0.082,-0.065
0.084,-0.05
0.086,-0.03
0.088,-0.01
0.09,0.005
0.092,0.015
0.094,0.015
0.096,0.01
0.098,0
0.1,-0.01
0.102,-0.015
0.104,-0.01
0.106,0
0.108,0.015
0.11,0.04
0.112,0.065
0.114,0.09
0.116,0.115
0.118,0.135
0.12,0.155
0.122,0.17
0.124,0.185
0.126,0.195
0.128,0.195
0.13,0.185
0.132,0.16
0.134,0.125
0.136,0.075
0.138,0.015
0.14,-0.045
0.142,-0.095
0.144,-0.14
0.146,-0.165
0.148,-0.17
0.15,-0.155
0.152,-0.13
0.154,-0.1
0.156,-0.075
0.158,-0.05
0.16,-0.04
0.162,-0.04
0.164,-0.05
0.166,-0.06
0.168,-0.07
0.17,-0.075
0.172,-0.075
0.174,-0.07
0.176,-0.055
0.178,-0.045
0.18,-0.035
0.182,-0.03
0.184,-0.03
0.186,-0.035
0.188,-0.04
0.19,-0.05
0.192,-0.055
0.194,-0.06
0.196,-0.06
0.198,-0.05
0.2,-0.045
0.202,-0.04
0.204,-0.04
0.206,-0.04
0.208,-0.045
0.21,-0.05
0.212,-0.055
0.214,-0.06
0.216,-0.06
0.218,-0.06
0.22,-0.05
0.222,-0.04
0.224,-0.03
0.226,-0.02
0.228,-0.015
0.23,-0.01
0.232,-0.01
0.234,-0.01
0.236,-0.015
0.238,-0.015
0.24,-0.02
0.242,-0.02
0.244,-0.025
0.246,-0.03
0.248,-0.035
0.25,-0.04
0.252,-0.045
0.254,-0.045
0.256,-0.04
0.258,-0.035
0.26,-0.025
0.262,-0.01
0.264,0
0.266,0.015
0.268,0.02
0.27,0.02
0.272,0.015
0.274,0.01
0.276,0.005
0.278,0
0.28,0
0.282,0.005
0.284,0.02
0.286,0.035
0.288,0.05
0.29,0.06
0.292,0.07
0.294,0.07
0.296,0.065
0.298,0.06
0.3,0.05
0.302,0.04
0.304,0.035
0.306,0.035
0.308,0.045
0.31,0.055
0.312,0.065
0.314,0.075
0.316,0.085
0.318,0.09
0.32,0.095
0.322,0.095
0.324,0.09
0.326,0.09
0.328,0.095
0.33,0.1
0.332,0.105
0.334,0.115
0.336,0.125
0.338,0.14
0.34,0.15
0.342,0.165
0.344,0.175
0.346,0.185
0.348,0.195
0.35,0.205
0.352,0.21
0.354,0.215
0.356,0.215
0.358,0.215
0.36,0.21
0.362,0.205
0.364,0.195
0.366,0.19
0.368,0.185
0.37,0.18
0.372,0.18
0.374,0.18
0.376,0.18
0.378,0.18
0.38,0.18
0.382,0.185
0.384,0.185
0.386,0.19
0.388,0.19
0.39,0.19
0.392,0.19
0.394,0.18
0.396,0.17
0.398,0.155
0.4,0.13
0.402,0.105
0.404,0.08
0.406,0.06
0.408,0.04
0.41,0.035
0.412,0.03
0.414,0.035
0.416,0.04
0.418,0.045
0.42,0.045
0.422,0.045
0.424,0.03
0.426,0.015
0.428,-0.005
0.43,-0.03
0.432,-0.045
0.434,-0.06
0.436,-0.07
0.438,-0.07
0.44,-0.065
0.442,-0.06
0.444,-0.05
0.446,-0.05
0.448,-0.045
0.45,-0.045
0.452,-0.045
0.454,-0.05
0.456,-0.05
0.458,-0.045
0.46,-0.045
0.462,-0.045
0.464,-0.045
0.466,-0.05
0.468,-0.06
0.47,-0.07
0.472,-0.085
0.474,-0.1
0.476,-0.11
0.478,-0.11
0.48,-0.11
0.482,-0.1
0.484,-0.085
0.486,-0.07
0.488,-0.055
0.49,-0.045
0.492,-0.045
0.494,-0.05
0.496,-0.06
0.498,-0.075
0.5,-0.09
0.502,-0.095
0.504,-0.095
0.506,-0.09
0.508,-0.08
0.51,-0.065
0.512,-0.055
0.514,-0.045
0.516,-0.04
0.518,-0.04
0.52,-0.045
0.522,-0.06
0.524,-0.07
0.526,-0.085
0.528,-0.09
0.53,-0.09
0.532,-0.09
0.534,-0.08
0.536,-0.075
0.538,-0.065
0.54,-0.06
0.542,-0.06
0.544,-0.065
0.546,-0.07
0.548,-0.075
0.55,-0.08
0.552,-0.085
0.554,-0.085
0.556,-0.085
0.558,-0.08
0.56,-0.07
0.562,-0.065
0.564,-0.055
0.566,-0.05
0.568,-0.045
0.57,-0.045
0.572,-0.04
0.574,-0.045
0.576,-0.045
0.578,-0.05
0.58,-0.06
0.582,-0.065
0.584,-0.07
0.586,-0.075
0.588,-0.08
0.59,-0.075
0.592,-0.07
0.594,-0.06
0.596,-0.045
0.598,-0.035
0.6,-0.02
0.602,-0.01
0.604,-0.005
0.606,-0.01
0.608,-0.015
0.61,-0.03
0.612,-0.04
0.614,-0.055
0.616,-0.065
0.618,-0.07
0.62,-0.075
0.622,-0.07
0.624,-0.065
0.626,-0.055
0.628,-0.045
0.63,-0.04
0.632,-0.035
0.634,-0.03
0.636,-0.025
0.638,-0.025
0.64,-0.025
0.642,-0.025
0.644,-0.03
0.646,-0.035
0.648,-0.045
0.65,-0.06
0.652,-0.075
0.654,-0.09
0.656,-0.1
0.658,-0.1
0.66,-0.095
0.662,-0.085
0.664,-0.065
0.666,-0.04
0.668,-0.02
0.67,0
0.672,0.005
0.674,0
0.676,-0.015
0.678,-0.035
0.68,-0.055
0.682,-0.075
0.684,-0.09
0.686,-0.09
0.688,-0.085
0.69,-0.07
0.692,-0.05
0.694,-0.03
0.696,-0.015
0.698,-0.01
0.7,-0.015
0.702,-0.03
0.704,-0.05
0.706,-0.065
0.708,-0.085
0.71,-0.095
0.712,-0.1
0.714,-0.095
0.716,-0.085
0.718,-0.07
0.72,-0.06
0.722,-0.05
0.724,-0.045
0.726,-0.045
0.728,-0.045
0.73,-0.05
0.732,-0.055
0.734,-0.06
0.736,-0.065
0.738,-0.065
0.74,-0.06
0.742,-0.055
0.744,-0.05
0.746,-0.045
0.748,-0.04
0.75,-0.035
0.752,-0.03
0.754,-0.025
0.756,-0.025
0.758,-0.03
0.76,-0.03
0.762,-0.04
0.764,-0.045
0.766,-0.05
0.768,-0.06
0.77,-0.06
0.772,-0.065
0.774,-0.06
0.776,-0.055
0.778,-0.05
0.78,-0.04
0.782,-0.035
0.784,-0.03
0.786,-0.025
0.788,-0.02
0.79,-0.02
0.792,-0.025
0.794,-0.03
0.796,-0.035
0.798,-0.04
0.8,-0.045
0.802,-0.045
0.804,-0.045
0.806,-0.04
0.808,-0.03
0.81,-0.025
0.812,-0.015
0.814,-0.01
0.816,-0.005
0.818,-0.005
0.82,-0.01
0.822,-0.015
0.824,-0.02
0.826,-0.025
0.828,-0.03
0.83,-0.04
0.832,-0.045
0.834,-0.05
0.836,-0.055
0.838,-0.065
0.84,-0.07
0.842,-0.08
0.844,-0.09
0.846,-0.1
0.848,-0.105
0.85,-0.11
0.852,-0.11
0.854,-0.105
0.856,-0.095
0.858,-0.08
0.86,-0.065
0.862,-0.055
0.864,-0.04
0.866,-0.03
0.868,-0.03
0.87,-0.03
0.872,-0.04
0.874,-0.05
0.876,-0.065
0.878,-0.075
0.88,-0.085
0.882,-0.085
0.884,-0.08
0.886,-0.065
0.888,-0.05
0.89,-0.03
0.892,-0.01
0.894,0.005
0.896,0.015
0.898,0.02
0.9,0.015
0.902,0.005
0.904,-0.005
0.906,-0.01
0.908,-0.01
0.91,0.005
0.912,0.03
0.914,0.07
0.916,0.12
0.918,0.175
0.92,0.23
0.922,0.28
0.924,0.32
0.926,0.345
0.928,0.35
0.93,0.335
0.932,0.3
0.934,0.25
0.936,0.195
0.938,0.13
0.94,0.065
0.942,0.005
0.944,-0.045
0.946,-0.08
0.948,-0.1
0.95,-0.11
0.952,-0.105
0.954,-0.09
0.956,-0.07
0.958,-0.045
0.96,-0.015
0.962,0.005
0.964,0.02
0.966,0.03
0.968,0.025
0.97,0.015
0.972,-0.005
0.974,-0.025
0.976,-0.045
0.978,-0.06
0.98,-0.07
0.982,-0.075
0.984,-0.07
0.986,-0.06
0.988,-0.05
0.99,-0.04
0.992,-0.04
0.994,-0.04
0.996,-0.05
0.998,-0.065
1,-0.08
1.002,-0.095
1.004,-0.105
1.006,-0.105
1.008,-0.1
1.01,-0.085
1.012,-0.07
1.014,-0.05
1.016,-0.035
1.018,-0.025
1.02,-0.015
1.022,-0.015
1.024,-0.02
1.026,-0.03
1.028,-0.04
1.03,-0.06
1.032,-0.08
1.034,-0.095
1.036,-0.11
1.038,-0.115
1.04,-0.12
1.042,-0.11
1.044,-0.095
1.046,-0.08
1.048,-0.055
1.05,-0.035
1.052,-0.02
1.054,-0.01
1.056,-0.005
1.058,-0.005
1.06,-0.015
1.062,-0.025
1.064,-0.03
1.066,-0.04
1.068,-0.04
1.07,-0.04
1.072,-0.035
1.074,-0.035
1.076,-0.03
1.078,-0.03
1.08,-0.025
1.082,-0.025
1.084,-0.025
1.086,-0.02
1.088,-0.015
1.09,-0.01
1.092,0
1.094,0.01
1.096,0.02
1.098,0.03
1.1,0.035
1.102,0.045
1.104,0.05
1.106,0.05
1.108,0.055
1.11,0.055
1.112,0.055
1.114,0.055
1.116,0.055
1.118,0.06
1.12,0.065
1.122,0.075
1.124,0.095
1.126,0.115
1.128,0.135
1.13,0.155
1.132,0.175
1.134,0.185
1.136,0.195
1.138,0.195
1.14,0.195
1.142,0.19
1.144,0.19
1.146,0.195
1.148,0.205
1.15,0.22
1.152,0.235
1.154,0.245
1.156,0.255
1.158,0.255
1.16,0.255
1.162,0.25
1.164,0.245
1.166,0.24
1.168,0.24
1.17,0.25
1.172,0.265
1.174,0.28
1.176,0.295
1.178,0.31
1.18,0.315
1.182,0.315
1.184,0.31
1.186,0.295
1.188,0.275
1.19,0.26
1.192,0.24
1.194,0.225
1.196,0.215
1.198,0.2
1.2,0.19
1.202,0.18
1.204,0.165
1.206,0.15
1.208,0.13
1.21,0.115
1.212,0.1
1.214,0.085
1.216,0.075
1.218,0.065
1.22,0.06
1.222,0.055
1.224,0.055
1.226,0.05
1.228,0.04
1.23,0.025
1.232,0.01
1.234,-0.01
1.236,-0.03
1.238,-0.045
1.24,-0.06
1.242,-0.065
1.244,-0.065
1.246,-0.065
1.248,-0.055
1.25,-0.05
1.252,-0.05
1.254,-0.055
1.256,-0.06
1.258,-0.08
1.26,-0.095
1.262,-0.115
1.264,-0.125
1.266,-0.13
1.268,-0.125
1.27,-0.115
1.272,-0.095
1.274,-0.075
1.276,-0.055
1.278,-0.045
1.28,-0.045
1.282,-0.05
1.284,-0.07
1.286,-0.09
1.288,-0.11
1.29,-0.13
1.292,-0.14
1.294,-0.14
1.296,-0.13
1.298,-0.12
1.3,-0.105
1.302,-0.095
1.304,-0.09
1.306,-0.09
1.308,-0.095
1.31,-0.1
1.312,-0.105
1.314,-0.11
1.316,-0.11
1.318,-0.105
1.32,-0.095
1.322,-0.085
1.324,-0.07
1.326,-0.06
1.328,-0.055
1.33,-0.05
1.332,-0.055
1.334,-0.06
1.336,-0.07
1.338,-0.08
1.34,-0.09
1.342,-0.095
1.344,-0.095
1.346,-0.09
1.348,-0.08
1.35,-0.07
1.352,-0.055
1.354,-0.045
1.356,-0.04
1.358,-0.035
1.36,-0.035
1.362,-0.04
1.364,-0.045
1.366,-0.05
1.368,-0.05
1.37,-0.05
1.372,-0.045
1.374,-0.03
1.376,-0.02
1.378,-0.005
1.38,0.005
1.382,0.005
1.384,0
1.386,-0.015
1.388,-0.03
1.39,-0.05
1.392,-0.07
1.394,-0.08
1.396,-0.08
1.398,-0.07
1.4,-0.05
1.402,-0.03
1.404,-0.005
1.406,0.01
1.408,0.025
1.41,0.03
1.412,0.03
1.414,0.025
1.416,0.02
1.418,0.015
1.42,0.01
1.422,0.015
1.424,0.015
1.426,0.015
1.428,0.015
1.43,0.01
1.432,0
1.434,-0.015
1.436,-0.03
1.438,-0.04
1.44,-0.05
1.442,-0.055
1.444,-0.05
1.446,-0.05
1.448,-0.045
1.45,-0.04
1.452,-0.04
1.454,-0.04
1.456,-0.045
1.458,-0.055
1.46,-0.065
1.462,-0.07
1.464,-0.075
1.466,-0.075
1.468,-0.07
1.47,-0.06
1.472,-0.055
1.474,-0.045
1.476,-0.04
1.478,-0.035
1.48,-0.035
1.482,-0.04
1.484,-0.045
1.486,-0.055
1.488,-0.06
1.49,-0.07
1.492,-0.075
1.494,-0.08
1.496,-0.08
1.498,-0.075
1.5,-0.065
1.502,-0.055
1.504,-0.045
1.506,-0.035
1.508,-0.03
1.51,-0.025
1.512,-0.02
1.514,-0.025
1.516,-0.025
1.518,-0.03
1.52,-0.035
1.522,-0.04
1.524,-0.04
1.526,-0.04
1.528,-0.035
1.53,-0.03
1.532,-0.025
1.534,-0.02
1.536,-0.015
1.538,-0.01
1.54,-0.005
1.542,0
1.544,0.005
1.546,0.005
1.548,0
1.55,0
1.552,-0.005
1.554,-0.015
1.556,-0.02
1.558,-0.025
1.56,-0.03
1.562,-0.03
1.564,-0.035
1.566,-0.035
1.568,-0.035
1.57,-0.035
1.572,-0.04
1.574,-0.04
1.576,-0.04
1.578,-0.035
1.58,-0.035
1.582,-0.035
1.584,-0.035
1.586,-0.035
1.588,-0.035
1.59,-0.035
1.592,-0.035
1.594,-0.035
1.596,-0.035
1.598,-0.04
1.6,-0.035
1.602,-0.035
1.604,-0.03
1.606,-0.03
1.608,-0.03
1.61,-0.03
1.612,-0.03
1.614,-0.035
1.616,-0.04
1.618,-0.04
1.62,-0.04
1.622,-0.04
1.624,-0.03
1.626,-0.015
1.628,0
1.63,0.015
1.632,0.025
1.634,0.035
1.636,0.035
1.638,0.035
1.64,0.03
1.642,0.03
1.644,0.03
1.646,0.035
1.648,0.055
1.65,0.08
1.652,0.115
1.654,0.15
1.656,0.185
1.658,0.215
1.66,0.23
1.662,0.23
1.664,0.215
1.666,0.19
1.668,0.155
1.67,0.11
1.672,0.065
1.674,0.025
1.676,-0.015
1.678,-0.04
1.68,-0.065
1.682,-0.075
1.684,-0.085
1.686,-0.085
1.688,-0.085
1.69,-0.08
1.692,-0.07
1.694,-0.065
1.696,-0.055
1.698,-0.045
1.7,-0.04
1.702,-0.035
1.704,-0.035
1.706,-0.035
1.708,-0.035
1.71,-0.04
1.712,-0.04
1.714,-0.04
1.716,-0.035
1.718,-0.025
1.72,-0.02
1.722,-0.01
1.724,-0.005
1.726,0
1.728,-0.005
1.73,-0.015
1.732,-0.03
1.734,-0.045
1.736,-0.06
1.738,-0.075
1.74,-0.08
1.742,-0.085
1.744,-0.08
1.746,-0.07
1.748,-0.06
1.75,-0.045
1.752,-0.035
1.754,-0.025
1.756,-0.02
1.758,-0.02
1.76,-0.025
1.762,-0.03
1.764,-0.03
1.766,-0.035
1.768,-0.035
1.77,-0.03
1.772,-0.02
1.774,-0.01
1.776,-0.005
1.778,0
1.78,0.005
1.782,0
1.784,-0.005
1.786,-0.015
1.788,-0.025
1.79,-0.03
1.792,-0.03
1.794,-0.03
1.796,-0.025
1.798,-0.02
1.8,-0.01
1.802,-0.005
1.804,-0.005
1.806,0
1.808,0
1.81,0
1.812,0.005
1.814,0.015
1.816,0.02
1.818,0.035
1.82,0.045
1.822,0.055
1.824,0.06
1.826,0.06
1.828,0.06
1.83,0.055
1.832,0.05
1.834,0.045
1.836,0.045
1.838,0.045
1.84,0.045
1.842,0.05
1.844,0.06
1.846,0.07
1.848,0.08
1.85,0.085
1.852,0.095
1.854,0.105
1.856,0.115
1.858,0.125
1.86,0.135
1.862,0.14
1.864,0.14
1.866,0.135
1.868,0.13
1.87,0.12
1.872,0.115
1.874,0.11
1.876,0.11
1.878,0.115
1.88,0.125
1.882,0.145
1.884,0.165
1.886,0.18
1.888,0.195
1.89,0.205
1.892,0.21
1.894,0.205
1.896,0.195
1.898,0.185
1.9,0.175
1.902,0.17
1.904,0.17
1.906,0.175
1.908,0.185
1.91,0.195
1.912,0.205
1.914,0.21
1.916,0.21
1.918,0.2
1.92,0.185
1.922,0.165
1.924,0.14
1.926,0.12
1.928,0.1
1.93,0.085
1.932,0.08
1.934,0.08
1.936,0.08
1.938,0.085
1.94,0.085
1.942,0.085
1.944,0.075
1.946,0.065
1.948,0.055
1.95,0.04
1.952,0.025
1.954,0.02
1.956,0.01
1.958,0.01
1.96,0.005
1.962,0.005
1.964,0
1.966,-0.005
1.968,-0.015
1.97,-0.025
1.972,-0.035
1.974,-0.045
1.976,-0.045
1.978,-0.045
1.98,-0.045
1.982,-0.04
1.984,-0.03
1.986,-0.025
1.988,-0.015
1.99,-0.01
1.992,-0.005
1.994,-0.005
1.996,0
1.998,0.005
2,0.005
2.002,0.005
2.004,0.005
2.006,0
2.008,-0.01
2.01,-0.02
2.012,-0.03
2.014,-0.04
2.016,-0.045
2.018,-0.045
2.02,-0.04
2.022,-0.035
2.024,-0.025
2.026,-0.02
2.028,-0.015
2.03,-0.015
2.032,-0.015
2.034,-0.015
2.036,-0.015
2.038,-0.015
2.04,-0.015
2.042,-0.01
2.044,-0.005
2.046,0
2.048,0
2.05,-0.005
2.052,-0.01
2.054,-0.015
2.056,-0.02
2.058,-0.025
2.06,-0.025
2.062,-0.025
2.064,-0.025
2.066,-0.02
2.068,-0.015
2.07,-0.015
2.072,-0.01
2.074,-0.01
2.076,-0.01
2.078,-0.01
2.08,-0.01
2.082,-0.005
2.084,0
2.086,0
2.088,0
2.09,-0.005
2.092,-0.01
2.094,-0.02
2.096,-0.035
2.098,-0.045
2.1,-0.05
2.102,-0.045
2.104,-0.04
2.106,-0.025
2.108,-0.005
2.11,0.01
2.112,0.02
2.114,0.03
2.116,0.03
2.118,0.02
2.12,0.01
2.122,-0.005
2.124,-0.015
2.126,-0.025
2.128,-0.03
2.13,-0.03
2.132,-0.025
2.134,-0.02
2.136,-0.015
2.138,-0.01
2.14,-0.005
2.142,-0.005
2.144,-0.005
2.146,-0.005
2.148,-0.005
2.15,-0.01
2.152,-0.015
2.154,-0.02
2.156,-0.025
2.158,-0.03
2.16,-0.03
2.162,-0.03
2.164,-0.025
2.166,-0.015
2.168,-0.005
2.17,0.005
2.172,0.02
2.174,0.025
2.176,0.03
2.178,0.025
2.18,0.02
2.182,0.01
2.184,0
2.186,-0.01
2.188,-0.015
2.19,-0.015
2.192,-0.015
2.194,-0.01
2.196,-0.005
2.198,0
2.2,0.005
2.202,0.005
2.204,0.005
2.206,0.01
2.208,0.015
2.21,0.02
2.212,0.025
2.214,0.025
2.216,0.025
2.218,0.025
2.22,0.015
2.222,0.01
2.224,0
2.226,0
2.228,0
2.23,0.01
2.232,0.025
2.234,0.04
2.236,0.055
2.238,0.06
2.24,0.06
2.242,0.045
2.244,0.02
2.246,-0.01
2.248,-0.04
2.25,-0.06
2.252,-0.075
2.254,-0.08
2.256,-0.07
2.258,-0.05
2.26,-0.035
2.262,-0.015
2.264,0
2.266,0.005
2.268,0
2.27,-0.01
2.272,-0.02
2.274,-0.025
2.276,-0.035
2.278,-0.035
2.28,-0.03
2.282,-0.025
2.284,-0.025
2.286,-0.02
2.288,-0.025
2.29,-0.03
2.292,-0.04
2.294,-0.045
2.296,-0.05
2.298,-0.055
2.3,-0.05
2.302,-0.04
2.304,-0.03
2.306,-0.02
2.308,-0.01
2.31,-0.005
2.312,-0.005
2.314,-0.005
2.316,-0.01
2.318,-0.01
2.32,-0.005
2.322,0
2.324,0.02
2.326,0.04
2.328,0.07
2.33,0.105
2.332,0.135
2.334,0.165
2.336,0.19
2.338,0.21
2.34,0.215
2.342,0.21
2.344,0.195
2.346,0.165
2.348,0.125
2.35,0.08
2.352,0.03
2.354,-0.02
2.356,-0.07
2.358,-0.105
2.36,-0.135
2.362,-0.155
2.364,-0.155
2.366,-0.15
2.368,-0.135
2.37,-0.11
2.372,-0.085
2.374,-0.065
2.376,-0.045
2.378,-0.035
2.38,-0.03
2.382,-0.035
2.384,-0.04
2.386,-0.05
2.388,-0.06
2.39,-0.065
2.392,-0.07
2.394,-0.07
2.396,-0.07
2.398,-0.065
2.4,-0.065
2.402,-0.06
2.404,-0.06
2.406,-0.055
2.408,-0.055
2.41,-0.055
2.412,-0.05
2.414,-0.045
2.416,-0.035
2.418,-0.025
2.42,-0.015
2.422,-0.005
2.424,0
2.426,0
2.428,-0.01
2.43,-0.015
2.432,-0.03
2.434,-0.04
2.436,-0.05
2.438,-0.055
2.44,-0.06
2.442,-0.06
2.444,-0.055
2.446,-0.045
2.448,-0.035
2.45,-0.025
2.452,-0.015
2.454,-0.005
2.456,0
2.458,0.005
2.46,0.01
2.462,0.01
2.464,0.005
2.466,0
2.468,-0.005
2.47,-0.015
2.472,-0.025
2.474,-0.03
2.476,-0.035
2.478,-0.035
2.48,-0.035
2.482,-0.025
2.484,-0.015
2.486,0
2.488,0.015
2.49,0.03
2.492,0.04
2.494,0.045
2.496,0.045
2.498,0.045
2.5,0.035
2.502,0.03
2.504,0.025
2.506,0.02
2.508,0.015
2.51,0.02
2.512,0.025
2.514,0.03
2.516,0.035
2.518,0.045
2.52,0.05
2.522,0.055
2.524,0.06
2.526,0.06
2.528,0.065
2.53,0.07
2.532,0.07
2.534,0.075
2.536,0.08
2.538,0.09
2.54,0.095
2.542,0.1
2.544,0.105
2.546,0.11
2.548,0.115
2.55,0.125
2.552,0.13
2.554,0.14
2.556,0.145
2.558,0.155
2.56,0.16
2.562,0.165
2.564,0.17
2.566,0.17
2.568,0.17
2.57,0.17
2.572,0.17
2.574,0.165
2.576,0.16
2.578,0.155
2.58,0.155
2.582,0.155
2.584,0.155
2.586,0.165
2.588,0.175
2.59,0.185
2.592,0.195
2.594,0.205
2.596,0.21
2.598,0.205
2.6,0.19
2.602,0.17
2.604,0.14
2.606,0.11
2.608,0.075
2.61,0.05
2.612,0.025
2.614,0.01
2.616,0.005
2.618,0.005
2.62,0.01
2.622,0.015
2.624,0.015
2.626,0.01
2.628,0
2.63,-0.01
2.632,-0.03
2.634,-0.045
2.636,-0.055
2.638,-0.06
2.64,-0.06
2.642,-0.055
2.644,-0.05
2.646,-0.04
2.648,-0.04
2.65,-0.035
2.652,-0.04
2.654,-0.05
2.656,-0.06
2.658,-0.065
2.66,-0.075
2.662,-0.08
2.664,-0.08
2.666,-0.08
2.668,-0.085
2.67,-0.085
2.672,-0.085
2.674,-0.09
2.676,-0.09
2.678,-0.09
2.68,-0.09
2.682,-0.085
2.684,-0.08
2.686,-0.075
2.688,-0.07
2.69,-0.065
2.692,-0.065
2.694,-0.07
2.696,-0.075
2.698,-0.08
2.7,-0.08
2.702,-0.085
2.704,-0.085
2.706,-0.085
2.708,-0.085
2.71,-0.085
2.712,-0.08
2.714,-0.08
2.716,-0.075
2.718,-0.075
2.72,-0.075
2.722,-0.07
2.724,-0.065
2.726,-0.065
2.728,-0.065
2.73,-0.065
2.732,-0.07
2.734,-0.075
2.736,-0.085
2.738,-0.095
2.74,-0.1
2.742,-0.105
2.744,-0.105
2.746,-0.1
2.748,-0.095
2.75,-0.09
2.752,-0.085
2.754,-0.08
2.756,-0.08
2.758,-0.08
2.76,-0.08
2.762,-0.085
2.764,-0.085
2.766,-0.09
2.768,-0.09
2.77,-0.09
2.772,-0.085
2.774,-0.085
2.776,-0.08
2.778,-0.08
2.78,-0.08
2.782,-0.08
2.784,-0.08
2.786,-0.08
2.788,-0.075
2.79,-0.075
2.792,-0.07
2.794,-0.065
2.796,-0.06
2.798,-0.055
2.8,-0.05
2.802,-0.05
2.804,-0.05
2.806,-0.05
2.808,-0.05
2.81,-0.055
2.812,-0.06
2.814,-0.065
2.816,-0.07
2.818,-0.07
2.82,-0.075
2.822,-0.075
2.824,-0.075
2.826,-0.07
2.828,-0.06
2.83,-0.055
2.832,-0.05
2.834,-0.045
2.836,-0.045
2.838,-0.05
2.84,-0.055
2.842,-0.06
2.844,-0.07
2.846,-0.075
2.848,-0.08
2.85,-0.085
2.852,-0.08
2.854,-0.075
2.856,-0.07
2.858,-0.065
2.86,-0.06
2.862,-0.055
2.864,-0.055
2.866,-0.055
2.868,-0.055
2.87,-0.055
2.872,-0.055
2.874,-0.055
2.876,-0.05
2.878,-0.04
2.88,-0.035
2.882,-0.03
2.884,-0.03
2.886,-0.03
2.888,-0.04
2.89,-0.05
2.892,-0.06
2.894,-0.075
2.896,-0.085
2.898,-0.09
2.9,-0.09
2.902,-0.08
2.904,-0.07
2.906,-0.055
2.908,-0.045
2.91,-0.035
2.912,-0.03
2.914,-0.03
2.916,-0.035
2.918,-0.035
2.92,-0.04
2.922,-0.045
2.924,-0.045
2.926,-0.045
2.928,-0.045
2.93,-0.045
2.932,-0.045
2.934,-0.04
2.936,-0.04
2.938,-0.035
2.94,-0.025
2.942,-0.015
2.944,-0.005
2.946,0.005
2.948,0.01
2.95,0.015
2.952,0.01
2.954,0
2.956,-0.01
2.958,-0.02
2.96,-0.03
2.962,-0.035
2.964,-0.04
2.966,-0.035
2.968,-0.035
2.97,-0.03
2.972,-0.03
2.974,-0.035
2.976,-0.04
2.978,-0.055
2.98,-0.065
2.982,-0.07
2.984,-0.075
2.986,-0.075
2.988,-0.065
2.99,-0.05
2.992,-0.04
2.994,-0.03
2.996,-0.025
2.998,-0.025
3,-0.035
3.002,-0.045
3.004,-0.06
3.006,-0.075
3.008,-0.09
3.01,-0.095
3.012,-0.095
3.014,-0.09
3.016,-0.085
3.018,-0.08
3.02,-0.07
3.022,-0.06
3.024,-0.055
3.026,-0.045
3.028,-0.035
3.03,-0.025
3.032,-0.015
3.034,0
3.036,0.005
3.038,0.015
3.04,0.015
3.042,0.015
3.044,0.015
3.046,0.02
3.048,0.03
3.05,0.045
3.052,0.07
3.054,0.105
3.056,0.14
3.058,0.18
3.06,0.21
3.062,0.23
3.064,0.235
3.066,0.22
3.068,0.195
3.07,0.155
3.072,0.11
3.074,0.055
3.076,0.005
3.078,-0.045
3.08,-0.085
3.082,-0.115
3.084,-0.135
3.086,-0.145
3.088,-0.145
3.09,-0.135
3.092,-0.115
3.094,-0.095
3.096,-0.07
3.098,-0.045
3.1,-0.025
3.102,-0.015
3.104,-0.01
3.106,-0.015
3.108,-0.02
3.11,-0.035
3.112,-0.045
3.114,-0.06
3.116,-0.065
3.118,-0.07
3.12,-0.065
3.122,-0.06
3.124,-0.05
3.126,-0.04
3.128,-0.03
3.13,-0.025
3.132,-0.02
3.134,-0.02
3.136,-0.02
3.138,-0.025
3.14,-0.03
3.142,-0.035
3.144,-0.045
3.146,-0.05
3.148,-0.05
3.15,-0.055
3.152,-0.05
3.154,-0.05
3.156,-0.045
3.158,-0.035
3.16,-0.03
3.162,-0.03
3.164,-0.025
3.166,-0.025
3.168,-0.025
3.17,-0.025
3.172,-0.025
3.174,-0.025
3.176,-0.025
3.178,-0.02
3.18,-0.015
3.182,-0.01
3.184,-0.005
3.186,0
3.188,0.005
3.19,0
3.192,0
3.194,-0.005
3.196,-0.01
3.198,-0.015
3.2,-0.02
3.202,-0.02
3.204,-0.02
3.206,-0.015
3.208,-0.01
3.21,-0.005
3.212,0.005
3.214,0.01
3.216,0.015
3.218,0.02
3.22,0.025
3.222,0.025
3.224,0.03
3.226,0.03
3.228,0.035
3.23,0.035
3.232,0.04
3.234,0.045
3.236,0.05
3.238,0.05
3.24,0.055
3.242,0.06
3.244,0.065
3.246,0.07
3.248,0.075
3.25,0.085
3.252,0.095
3.254,0.1
3.256,0.11
3.258,0.12
3.26,0.13
3.262,0.14
3.264,0.15
3.266,0.16
3.268,0.165
3.27,0.17
3.272,0.17
3.274,0.17
3.276,0.165
3.278,0.16
3.28,0.15
3.282,0.15
3.284,0.145
3.286,0.15
3.288,0.16
3.29,0.175
3.292,0.19
3.294,0.205
3.296,0.22
3.298,0.225
3.3,0.225
3.302,0.22
3.304,0.21
3.306,0.2
3.308,0.19
3.31,0.18
3.312,0.18
3.314,0.18
3.316,0.185
3.318,0.19
3.32,0.195
3.322,0.195
3.324,0.19
3.326,0.185
3.328,0.175
3.33,0.16
3.332,0.15
3.334,0.135
3.336,0.12
3.338,0.105
3.34,0.09
3.342,0.07
3.344,0.055
3.346,0.04
3.348,0.025
3.35,0.02
3.352,0.015
3.354,0.015
3.356,0.02
3.358,0.02
3.36,0.02
3.362,0.015
3.364,0.005
3.366,-0.005
3.368,-0.02
3.37,-0.03
3.372,-0.035
3.374,-0.035
3.376,-0.03
3.378,-0.025
3.38,-0.015
3.382,-0.01
3.384,-0.01
3.386,-0.015
3.388,-0.025
3.39,-0.035
3.392,-0.045
3.394,-0.055
3.396,-0.055
3.398,-0.05
3.4,-0.045
3.402,-0.04
3.404,-0.035
3.406,-0.035
3.408,-0.04
3.41,-0.05
3.412,-0.06
3.414,-0.07
3.416,-0.075
3.418,-0.075
3.42,-0.07
3.422,-0.06
3.424,-0.05
3.426,-0.04
3.428,-0.03
3.43,-0.03
3.432,-0.035
3.434,-0.04
3.436,-0.045
3.438,-0.05
3.44,-0.045
3.442,-0.04
3.444,-0.03
3.446,-0.02
3.448,-0.01
3.45,-0.01
3.452,-0.015
3.454,-0.025
3.456,-0.045
3.458,-0.06
3.46,-0.07
3.462,-0.075
3.464,-0.07
3.466,-0.055
3.468,-0.04
3.47,-0.025
3.472,-0.015
3.474,-0.015
3.476,-0.02
3.478,-0.03
3.48,-0.045
3.482,-0.055
3.484,-0.065
3.486,-0.06
3.488,-0.055
3.49,-0.04
3.492,-0.025
3.494,-0.01
3.496,0
3.498,0
3.5,-0.005
3.502,-0.01
3.504,-0.025
3.506,-0.035
3.508,-0.04
3.51,-0.045
3.512,-0.045
3.514,-0.04
3.516,-0.04
3.518,-0.04
3.52,-0.045
3.522,-0.045
3.524,-0.05
3.526,-0.055
3.528,-0.055
3.53,-0.055
3.532,-0.05
3.534,-0.045
3.536,-0.04
3.538,-0.035
3.54,-0.04
3.542,-0.04
3.544,-0.045
3.546,-0.055
3.548,-0.055
3.55,-0.055
3.552,-0.05
3.554,-0.045
3.556,-0.035
3.558,-0.025
3.56,-0.02
3.562,-0.02
3.564,-0.025
3.566,-0.03
3.568,-0.04
3.57,-0.05
3.572,-0.06
3.574,-0.06
3.576,-0.06
3.578,-0.055
3.58,-0.05
3.582,-0.045
3.584,-0.035
3.586,-0.03
3.588,-0.03
3.59,-0.025
3.592,-0.03
3.594,-0.03
3.596,-0.03
3.598,-0.035
3.6,-0.035
3.602,-0.035
3.604,-0.03
3.606,-0.03
3.608,-0.03
3.61,-0.03
3.612,-0.03
3.614,-0.035
3.616,-0.04
3.618,-0.05
3.62,-0.055
3.622,-0.065
3.624,-0.07
3.626,-0.075
3.628,-0.075
3.63,-0.07
3.632,-0.065
3.634,-0.05
3.636,-0.04
3.638,-0.03
3.64,-0.02
3.642,-0.015
3.644,-0.015
3.646,-0.02
3.648,-0.02
3.65,-0.025
3.652,-0.03
3.654,-0.03
3.656,-0.03
3.658,-0.025
3.66,-0.02
3.662,-0.015
3.664,-0.01
3.666,-0.005
3.668,0
3.67,0
3.672,0
3.674,0
3.676,0
3.678,0
3.68,0
3.682,0
3.684,0
3.686,0
3.688,0.005
3.69,0.005
3.692,0.005
3.694,0.005
3.696,0.005
3.698,0.005
3.7,0.01
3.702,0.01
3.704,0.01
3.706,0.01
3.708,0.005
3.71,0
3.712,-0.005
3.714,-0.015
3.716,-0.025
3.718,-0.03
3.72,-0.035
3.722,-0.04
3.724,-0.04
3.726,-0.04
3.728,-0.04
3.73,-0.04
3.732,-0.04
3.734,-0.045
3.736,-0.045
3.738,-0.045
3.74,-0.045
3.742,-0.045
3.744,-0.045
3.746,-0.045
3.748,-0.05
3.75,-0.05
3.752,-0.055
3.754,-0.06
3.756,-0.07
3.758,-0.07
3.76,-0.07
3.762,-0.06
3.764,-0.05
3.766,-0.035
3.768,-0.015
3.77,0.005
3.772,0.02
3.774,0.025
3.776,0.03
3.778,0.02
3.78,0.01
3.782,0.005
3.784,0
3.786,0
3.788,0.015
3.79,0.045
3.792,0.08
3.794,0.125
3.796,0.17
3.798,0.215
3.8,0.25
3.802,0.275
3.804,0.29
3.806,0.29
3.808,0.275
3.81,0.25
3.812,0.215
3.814,0.17
3.816,0.12
3.818,0.065
3.82,0.01
3.822,-0.04
3.824,-0.08
3.826,-0.115
3.828,-0.135
3.83,-0.145
3.832,-0.135
3.834,-0.12
3.836,-0.095
3.838,-0.07
3.84,-0.04
3.842,-0.02
3.844,-0.005
3.846,0.005
3.848,0.005
3.85,0
3.852,-0.01
3.854,-0.025
3.856,-0.035
3.858,-0.04
3.86,-0.045
3.862,-0.045
3.864,-0.045
3.866,-0.035
3.868,-0.03
3.87,-0.02
3.872,-0.01
3.874,0
3.876,0.01
3.878,0.02
3.88,0.025
3.882,0.025
3.884,0.025
3.886,0.02
3.888,0.01
3.89,0
3.892,-0.005
3.894,-0.015
3.896,-0.02
3.898,-0.015
3.9,-0.015
3.902,-0.005
3.904,0
3.906,0.005
3.908,0.005
3.91,0.005
3.912,-0.005
3.914,-0.015
3.916,-0.025
3.918,-0.025
3.92,-0.025
3.922,-0.015
3.924,-0.005
3.926,0.015
3.928,0.035
3.93,0.05
3.932,0.055
3.934,0.06
3.936,0.055
3.938,0.04
3.94,0.03
3.942,0.02
3.944,0.015
3.946,0.02
3.948,0.025
3.95,0.04
3.952,0.05
3.954,0.06
3.956,0.065
3.958,0.06
3.96,0.05
3.962,0.04
3.964,0.025
3.966,0.015
3.968,0.01
3.97,0.015
3.972,0.03
3.974,0.05
3.976,0.07
3.978,0.085
3.98,0.1
3.982,0.11
3.984,0.105
3.986,0.1
3.988,0.09
3.99,0.075
3.992,0.065
3.994,0.06
3.996,0.06
3.998,0.07
4,0.085
4.002,0.105
4.004,0.12
4.006,0.14
4.008,0.15
4.01,0.16
4.012,0.165
4.014,0.17
4.016,0.17
4.018,0.165
4.02,0.165
4.022,0.165
4.024,0.17
4.026,0.175
4.028,0.18
4.03,0.19
4.032,0.195
4.034,0.205
4.036,0.215
4.038,0.225
4.04,0.235
4.042,0.245
4.044,0.255
4.046,0.26
4.048,0.265
4.05,0.265
4.052,0.26
4.054,0.25
4.056,0.245
4.058,0.235
4.06,0.225
4.062,0.215
4.064,0.21
4.066,0.2
4.068,0.19
4.07,0.18
4.072,0.17
4.074,0.16
4.076,0.15
4.078,0.14
4.08,0.13
4.082,0.125
4.084,0.115
4.086,0.11
4.088,0.105
4.09,0.095
4.092,0.08
4.094,0.065
4.096,0.05
4.098,0.035
4.1,0.025
4.102,0.015
4.104,0.01
4.106,0.005
4.108,0.01
4.11,0.01
4.112,0.015
4.114,0.015
4.116,0.01
4.118,0.005
4.12,-0.005
4.122,-0.015
4.124,-0.025
4.126,-0.035
4.128,-0.04
4.13,-0.045
4.132,-0.045
4.134,-0.04
4.136,-0.04
4.138,-0.035
4.14,-0.03
4.142,-0.03
4.144,-0.03
4.146,-0.03
4.148,-0.035
4.15,-0.035
4.152,-0.04
4.154,-0.045
4.156,-0.05
4.158,-0.05
4.16,-0.045
4.162,-0.045
4.164,-0.04
4.166,-0.035
4.168,-0.035
4.17,-0.03
4.172,-0.035
4.174,-0.04
4.176,-0.045
4.178,-0.055
4.18,-0.06
4.182,-0.06
4.184,-0.055
4.186,-0.045
4.188,-0.035
4.19,-0.025
4.192,-0.015
4.194,-0.01
4.196,-0.01
4.198,-0.01
4.2,-0.02
4.202,-0.025
4.204,-0.03
4.206,-0.035
4.208,-0.035
4.21,-0.035
4.212,-0.03
4.214,-0.025
4.216,-0.02
4.218,-0.02
4.22,-0.02
4.222,-0.02
4.224,-0.02
4.226,-0.02
4.228,-0.02
4.23,-0.02
4.232,-0.025
4.234,-0.025
4.236,-0.025
4.238,-0.03
4.24,-0.04
4.242,-0.045
4.244,-0.045
4.246,-0.045
4.248,-0.04
4.25,-0.035
4.252,-0.025
4.254,-0.015
4.256,-0.01
4.258,-0.01
4.26,-0.01
4.262,-0.02
4.264,-0.025
4.266,-0.035
4.268,-0.04
4.27,-0.04
4.272,-0.04
4.274,-0.035
4.276,-0.03
4.278,-0.025
4.28,-0.025
4.282,-0.03
4.284,-0.035
4.286,-0.04
4.288,-0.045
4.29,-0.05
4.292,-0.05
4.294,-0.05
4.296,-0.05
4.298,-0.045
4.3,-0.04
4.302,-0.04
4.304,-0.04
4.306,-0.04
4.308,-0.04
4.31,-0.045
4.312,-0.04
4.314,-0.035
4.316,-0.03
4.318,-0.02
4.32,-0.01
4.322,-0.005
4.324,0
4.326,-0.005
4.328,-0.01
4.33,-0.015
4.332,-0.025
4.334,-0.035
4.336,-0.045
4.338,-0.05
4.34,-0.05
4.342,-0.045
4.344,-0.04
4.346,-0.035
4.348,-0.03
4.35,-0.025
4.352,-0.03
4.354,-0.03
4.356,-0.035
4.358,-0.04
4.36,-0.04
4.362,-0.04
4.364,-0.035
4.366,-0.03
4.368,-0.025
4.37,-0.025
4.372,-0.025
4.374,-0.03
4.376,-0.035
4.378,-0.04
4.38,-0.05
4.382,-0.055
4.384,-0.06
4.386,-0.055
4.388,-0.05
4.39,-0.045
4.392,-0.04
4.394,-0.035
4.396,-0.035
4.398,-0.035
4.4,-0.035
4.402,-0.04
4.404,-0.045
4.406,-0.045
4.408,-0.04
4.41,-0.035
4.412,-0.03
4.414,-0.025
4.416,-0.025
4.418,-0.025
4.42,-0.03
4.422,-0.035
4.424,-0.045
4.426,-0.055
4.428,-0.065
4.43,-0.07
4.432,-0.07
4.434,-0.065
4.436,-0.06
4.438,-0.05
4.44,-0.04
4.442,-0.03
4.444,-0.025
4.446,-0.02
4.448,-0.02
4.45,-0.02
4.452,-0.02
4.454,-0.025
4.456,-0.025
4.458,-0.03
4.46,-0.035
4.462,-0.04
4.464,-0.04
4.466,-0.045
4.468,-0.045
4.47,-0.05
4.472,-0.05
4.474,-0.05
4.476,-0.045
4.478,-0.035
4.48,-0.03
4.482,-0.02
4.484,-0.015
4.486,-0.01
4.488,-0.01
4.49,-0.015
4.492,-0.025
4.494,-0.035
4.496,-0.04
4.498,-0.05
4.5,-0.055
4.502,-0.055
4.504,-0.055
4.506,-0.055
4.508,-0.05
4.51,-0.05
4.512,-0.055
4.514,-0.055
4.516,-0.06
4.518,-0.065
4.52,-0.065
4.522,-0.065
4.524,-0.06
4.526,-0.05
4.528,-0.04
4.53,-0.035
4.532,-0.025
4.534,-0.02
4.536,-0.015
4.538,-0.015
4.54,-0.02
4.542,-0.02
4.544,-0.02
4.546,-0.02
4.548,-0.02
4.55,-0.02
4.552,-0.02
4.554,-0.02
4.556,-0.02
4.558,-0.025
4.56,-0.035
4.562,-0.04
4.564,-0.05
4.566,-0.055
4.568,-0.055
4.57,-0.055
4.572,-0.055
4.574,-0.05
4.576,-0.045
4.578,-0.04
4.58,-0.04
4.582,-0.04
4.584,-0.04
4.586,-0.045
4.588,-0.045
4.59,-0.045
4.592,-0.04
4.594,-0.04
4.596,-0.035
4.598,-0.035
4.6,-0.035
4.602,-0.04
4.604,-0.045
4.606,-0.055
4.608,-0.065
4.61,-0.075
4.612,-0.08
4.614,-0.08
4.616,-0.075
4.618,-0.065
4.62,-0.05
4.622,-0.04
4.624,-0.03
4.626,-0.025
4.628,-0.03
4.63,-0.035
4.632,-0.045
4.634,-0.06
4.636,-0.07
4.638,-0.075
4.64,-0.075
4.642,-0.075
4.644,-0.065
4.646,-0.055
4.648,-0.045
4.65,-0.035
4.652,-0.03
4.654,-0.025
4.656,-0.03
4.658,-0.035
4.66,-0.04
4.662,-0.045
4.664,-0.055
4.666,-0.055
4.668,-0.06
4.67,-0.06
4.672,-0.055
4.674,-0.05
4.676,-0.05
4.678,-0.045
4.68,-0.04
4.682,-0.035
4.684,-0.035
4.686,-0.03
4.688,-0.03
4.69,-0.025
4.692,-0.025
4.694,-0.025
4.696,-0.02
4.698,-0.02
4.7,-0.02
4.702,-0.02
4.704,-0.025
4.706,-0.025
4.708,-0.03
4.71,-0.035
4.712,-0.04
4.714,-0.04
4.716,-0.04
4.718,-0.035
4.72,-0.03
4.722,-0.02
4.724,-0.015
4.726,-0.01
4.728,-0.01
4.73,-0.01
4.732,-0.015
4.734,-0.02
4.736,-0.03
4.738,-0.035
4.74,-0.04
4.742,-0.04
4.744,-0.035
4.746,-0.03
4.748,-0.02
4.75,-0.015
4.752,-0.005
4.754,0.005
4.756,0.01
4.758,0.01
4.76,0.01
4.762,0.01
4.764,0.005
4.766,0.005
4.768,0
4.77,0
4.772,0
4.774,0.005
4.776,0.005
4.778,0.01
4.78,0.015
4.782,0.02
4.784,0.02
4.786,0.02
4.788,0.015
4.79,0.005
4.792,-0.005
4.794,-0.015
4.796,-0.025
4.798,-0.03
4.8,-0.03
4.802,-0.025
4.804,-0.02
4.806,-0.015
4.808,-0.01
4.81,-0.01
4.812,-0.01
4.814,-0.02
4.816,-0.035
4.818,-0.045
4.82,-0.055
4.822,-0.06
4.824,-0.055
4.826,-0.05
4.828,-0.045
4.83,-0.035
4.832,-0.03
4.834,-0.03
4.836,-0.035
4.838,-0.04
4.84,-0.05
4.842,-0.055
4.844,-0.055
4.846,-0.045
4.848,-0.035
4.85,-0.02
4.852,0
4.854,0.015
4.856,0.03
4.858,0.035
4.86,0.04
4.862,0.045
4.864,0.05
4.866,0.06
4.868,0.07
4.87,0.09
4.872,0.11
4.874,0.135
4.876,0.16
4.878,0.18
4.88,0.2
4.882,0.21
4.884,0.215
4.886,0.21
4.888,0.195
4.89,0.17
4.892,0.13
4.894,0.085
4.896,0.04
4.898,-0.01
4.9,-0.055
4.902,-0.095
4.904,-0.115
4.906,-0.125
4.908,-0.12
4.91,-0.1
4.912,-0.08
4.914,-0.055
4.916,-0.035
4.918,-0.02
4.92,-0.015
4.922,-0.02
4.924,-0.035
4.926,-0.045
4.928,-0.06
4.93,-0.065
4.932,-0.065
4.934,-0.06
4.936,-0.05
4.938,-0.04
4.94,-0.03
4.942,-0.02
4.944,-0.02
4.946,-0.02
4.948,-0.025
4.95,-0.03
4.952,-0.035
4.954,-0.03
4.956,-0.025
4.958,-0.015
4.96,-0.005
4.962,0.005
4.964,0.01
4.966,0.01
4.968,0.005
4.97,0
4.972,-0.015
4.974,-0.025
4.976,-0.03
4.978,-0.035
4.98,-0.03
4.982,-0.025
4.984,-0.015
4.986,-0.005
4.988,0.005
4.99,0.01
4.992,0.015
4.994,0.015
4.996,0.01
4.998,0.005
5,-0.005
5.002,-0.005
5.004,-0.01
5.006,-0.01
5.008,-0.005
5.01,0.005
5.012,0.01
5.014,0.02
5.016,0.03
5.018,0.035
5.02,0.04
5.022,0.04
5.024,0.04
5.026,0.04
5.028,0.04
5.03,0.045
5.032,0.045
5.034,0.045
5.036,0.05
5.038,0.05
5.04,0.05
5.042,0.045
5.044,0.035
5.046,0.03
5.048,0.02
5.05,0.02
5.052,0.02
5.054,0.025
5.056,0.035
5.058,0.05
5.06,0.065
5.062,0.075
5.064,0.085
5.066,0.085
5.068,0.08
5.07,0.07
5.072,0.06
5.074,0.055
5.076,0.05
5.078,0.05
5.08,0.055
5.082,0.07
5.084,0.09
5.086,0.11
5.088,0.13
5.09,0.145
5.092,0.16
5.094,0.17
5.096,0.18
5.098,0.185
5.1,0.185
5.102,0.185
5.104,0.185
5.106,0.185
5.108,0.18
5.11,0.18
5.112,0.175
5.114,0.175
5.116,0.18
5.118,0.185
5.12,0.19
5.122,0.2
5.124,0.205
5.126,0.21
5.128,0.21
5.13,0.205
5.132,0.195
5.134,0.18
5.136,0.17
5.138,0.155
5.14,0.15
5.142,0.15
5.144,0.155
5.146,0.165
5.148,0.175
5.15,0.185
5.152,0.185
5.154,0.185
5.156,0.175
5.158,0.16
5.16,0.145
5.162,0.125
5.164,0.11
5.166,0.095
5.168,0.085
5.17,0.08
5.172,0.075
5.174,0.075
5.176,0.07
5.178,0.06
5.18,0.055
5.182,0.04
5.184,0.03
5.186,0.015
5.188,0.005
5.19,-0.005
5.192,-0.01
5.194,-0.01
5.196,-0.01
5.198,-0.01
5.2,-0.005
5.202,-0.005
5.204,-0.01
5.206,-0.015
5.208,-0.025
5.21,-0.035
5.212,-0.04
5.214,-0.045
5.216,-0.05
5.218,-0.055
5.22,-0.055
5.222,-0.055
5.224,-0.06
5.226,-0.06
5.228,-0.06
5.23,-0.06
5.232,-0.06
5.234,-0.055
5.236,-0.055
5.238,-0.05
5.24,-0.04
5.242,-0.035
5.244,-0.035
5.246,-0.03
5.248,-0.03
5.25,-0.035
5.252,-0.04
5.254,-0.04
5.256,-0.045
5.258,-0.045
5.26,-0.05
5.262,-0.045
5.264,-0.045
5.266,-0.045
5.268,-0.045
5.27,-0.045
5.272,-0.045
5.274,-0.045
5.276,-0.045
5.278,-0.04
5.28,-0.035
5.282,-0.03
5.284,-0.02
5.286,-0.015
5.288,-0.015
5.29,-0.015
5.292,-0.015
5.294,-0.02
5.296,-0.03
5.298,-0.04
5.3,-0.045
5.302,-0.05
5.304,-0.055
5.306,-0.055
5.308,-0.05
5.31,-0.05
5.312,-0.05
5.314,-0.05
5.316,-0.05
5.318,-0.055
5.32,-0.05
5.322,-0.05
5.324,-0.045
5.326,-0.035
5.328,-0.025
5.33,-0.015
5.332,-0.005
5.334,-0.005
5.336,-0.005
5.338,-0.01
5.34,-0.02
5.342,-0.03
5.344,-0.04
5.346,-0.045
5.348,-0.045
5.35,-0.04
5.352,-0.035
5.354,-0.025
5.356,-0.02
5.358,-0.02
5.36,-0.02
5.362,-0.025
5.364,-0.03
5.366,-0.04
5.368,-0.045
5.37,-0.045
5.372,-0.045
5.374,-0.04
5.376,-0.035
5.378,-0.03
5.38,-0.03
5.382,-0.03
5.384,-0.03
5.386,-0.035
5.388,-0.04
5.39,-0.045
5.392,-0.045
5.394,-0.045
5.396,-0.04
5.398,-0.035
5.4,-0.035
5.402,-0.03
5.404,-0.03
5.406,-0.03
5.408,-0.035
5.41,-0.035
5.412,-0.035
5.414,-0.03
5.416,-0.025
5.418,-0.02
5.42,-0.015
5.422,-0.02
5.424,-0.025
5.426,-0.04
5.428,-0.055
5.43,-0.07
5.432,-0.085
5.434,-0.09
5.436,-0.085
5.438,-0.07
5.44,-0.05
5.442,-0.03
5.444,-0.01
5.446,0.005
5.448,0.01
5.45,0.01
5.452,-0.005
5.454,-0.02
5.456,-0.035
5.458,-0.05
5.46,-0.055
5.462,-0.055
5.464,-0.05
5.466,-0.035
5.468,-0.025
5.47,-0.015
5.472,-0.015
5.474,-0.02
5.476,-0.025
5.478,-0.035
5.48,-0.045
5.482,-0.045
5.484,-0.045
5.486,-0.035
5.488,-0.02
5.49,-0.01
5.492,0
5.494,0.005
5.496,0
5.498,-0.01
5.5,-0.025
5.502,-0.045
5.504,-0.06
5.506,-0.075
5.508,-0.08
5.51,-0.08
5.512,-0.07
5.514,-0.065
5.516,-0.06
5.518,-0.055
5.52,-0.055
5.522,-0.06
5.524,-0.065
5.526,-0.07
5.528,-0.075
5.53,-0.075
5.532,-0.065
5.534,-0.06
5.536,-0.045
5.538,-0.035
5.54,-0.03
5.542,-0.025
5.544,-0.025
5.546,-0.03
5.548,-0.035
5.55,-0.04
5.552,-0.045
5.554,-0.045
5.556,-0.045
5.558,-0.045
5.56,-0.045
5.562,-0.04
5.564,-0.04
5.566,-0.035
5.568,-0.03
5.57,-0.025
5.572,-0.02
5.574,-0.015
5.576,-0.01
5.578,-0.01
5.58,-0.015
5.582,-0.015
5.584,-0.025
5.586,-0.03
5.588,-0.03
5.59,-0.03
5.592,-0.02
5.594,-0.01
5.596,0.005
5.598,0.02
5.6,0.03
5.602,0.035
5.604,0.03
5.606,0.02
5.608,0.005
5.61,-0.01
5.612,-0.025
5.614,-0.04
5.616,-0.045
5.618,-0.045
5.62,-0.045
5.622,-0.04
5.624,-0.035
5.626,-0.035
5.628,-0.035
5.63,-0.035
5.632,-0.035
5.634,-0.04
5.636,-0.04
5.638,-0.045
5.64,-0.05
5.642,-0.055
5.644,-0.06
5.646,-0.07
5.648,-0.08
5.65,-0.085
5.652,-0.085
5.654,-0.085
5.656,-0.075
5.658,-0.06
5.66,-0.045
5.662,-0.03
5.664,-0.02
5.666,-0.015
5.668,-0.02
5.67,-0.03
5.672,-0.04
5.674,-0.055
5.676,-0.065
5.678,-0.07
5.68,-0.065
5.682,-0.055
5.684,-0.04
5.686,-0.025
5.688,-0.01
5.69,0.005
5.692,0.015
5.694,0.025
5.696,0.04
5.698,0.055
5.7,0.07
5.702,0.09
5.704,0.11
5.706,0.135
5.708,0.155
5.71,0.17
5.712,0.185
5.714,0.195
5.716,0.2
5.718,0.2
5.72,0.19
5.722,0.175
5.724,0.15
5.726,0.115
5.728,0.075
5.73,0.025
5.732,-0.025
5.734,-0.07
5.736,-0.105
5.738,-0.13
5.74,-0.135
5.742,-0.13
5.744,-0.11
5.746,-0.085
5.748,-0.06
5.75,-0.045
5.752,-0.035
5.754,-0.035
5.756,-0.045
5.758,-0.055
5.76,-0.065
5.762,-0.075
5.764,-0.08
5.766,-0.08
5.768,-0.075
5.77,-0.065
5.772,-0.06
5.774,-0.06
5.776,-0.06
5.778,-0.06
5.78,-0.06
5.782,-0.06
5.784,-0.05
5.786,-0.035
5.788,-0.02
5.79,0
5.792,0.01
5.794,0.015
5.796,0.01
5.798,-0.005
5.8,-0.03
5.802,-0.05
5.804,-0.07
5.806,-0.08
5.808,-0.08
5.81,-0.07
5.812,-0.05
5.814,-0.025
5.816,-0.005
5.818,0.015
5.82,0.025
5.822,0.025
5.824,0.02
5.826,0.01
5.828,0
5.83,-0.005
5.832,-0.005
5.834,-0.005
5.836,0
5.838,0.005
5.84,0.01
5.842,0.01
5.844,0.01
5.846,0.005
5.848,0
5.85,-0.005
5.852,-0.01
5.854,-0.01
5.856,-0.005
5.858,0
5.86,0.005
5.862,0.005
5.864,0.01
5.866,0.01
5.868,0.01
5.87,0.015
5.872,0.02
5.874,0.025
5.876,0.035
5.878,0.045
5.88,0.055
5.882,0.06
5.884,0.06
5.886,0.055
5.888,0.05
5.89,0.04
5.892,0.03
5.894,0.03
5.896,0.03
5.898,0.04
5.9,0.055
5.902,0.075
5.904,0.095
5.906,0.105
5.908,0.115
5.91,0.115
5.912,0.105
5.914,0.095
5.916,0.08
5.918,0.075
5.92,0.075
5.922,0.085
5.924,0.11
5.926,0.14
5.928,0.175
5.93,0.205
5.932,0.23
5.934,0.245
5.936,0.245
5.938,0.24
5.94,0.225
5.942,0.205
5.944,0.19
5.946,0.18
5.948,0.175
5.95,0.18
5.952,0.19
5.954,0.2
5.956,0.215
5.958,0.22
5.96,0.225
5.962,0.225
5.964,0.225
5.966,0.22
5.968,0.21
5.97,0.21
5.972,0.205
5.974,0.205
5.976,0.2
5.978,0.195
5.98,0.19
5.982,0.175
5.984,0.16
5.986,0.14
5.988,0.12
5.99,0.1
5.992,0.085
5.994,0.07
5.996,0.065
5.998,0.06
6,0.055
6.002,0.055
6.004,0.05
6.006,0.045
6.008,0.035
6.01,0.025
6.012,0.015
6.014,0.005
6.016,0
6.018,0
6.02,0
6.022,0
6.024,0
6.026,0
6.028,-0.005
6.03,-0.01
6.032,-0.02
6.034,-0.025
6.036,-0.035
6.038,-0.035
6.04,-0.035
6.042,-0.03
6.044,-0.025
6.046,-0.02
6.048,-0.015
6.05,-0.015
6.052,-0.02
6.054,-0.03
6.056,-0.045
6.058,-0.06
6.06,-0.075
6.062,-0.08
6.064,-0.085
6.066,-0.085
6.068,-0.08
6.07,-0.07
6.072,-0.055
6.074,-0.045
6.076,-0.04
6.078,-0.035
6.08,-0.035
6.082,-0.035
6.084,-0.035
6.086,-0.04
6.088,-0.04
6.09,-0.035
6.092,-0.03
6.094,-0.025
6.096,-0.015
6.098,-0.005
6.1,-0.005
6.102,-0.005
6.104,-0.01
6.106,-0.02
6.108,-0.035
6.11,-0.045
6.112,-0.06
6.114,-0.07
6.116,-0.075
6.118,-0.075
6.12,-0.07
6.122,-0.06
6.124,-0.045
6.126,-0.035
6.128,-0.025
6.13,-0.015
6.132,-0.01
6.134,-0.005
6.136,-0.005
6.138,-0.01
6.14,-0.015
6.142,-0.025
6.144,-0.03
6.146,-0.04
6.148,-0.05
6.15,-0.06
6.152,-0.065
6.154,-0.07
6.156,-0.07
6.158,-0.065
6.16,-0.06
6.162,-0.055
6.164,-0.045
6.166,-0.04
6.168,-0.03
6.17,-0.025
6.172,-0.015
6.174,-0.01
6.176,-0.005
6.178,0
6.18,0
6.182,0
6.184,0
6.186,-0.005
6.188,-0.015
6.19,-0.025
6.192,-0.035
6.194,-0.045
6.196,-0.055
6.198,-0.06
6.2,-0.065
6.202,-0.065
6.204,-0.065
6.206,-0.055
6.208,-0.05
6.21,-0.04
6.212,-0.03
6.214,-0.02
6.216,-0.01
6.218,-0.005
6.22,0
6.222,0
6.224,-0.005
6.226,-0.015
6.228,-0.025
6.23,-0.04
6.232,-0.05
6.234,-0.065
6.236,-0.075
6.238,-0.075
6.24,-0.07
6.242,-0.06
6.244,-0.045
6.246,-0.03
6.248,-0.02
6.25,-0.01
6.252,-0.01
6.254,-0.015
6.256,-0.025
6.258,-0.04
6.26,-0.055
6.262,-0.06
6.264,-0.06
6.266,-0.055
6.268,-0.045
6.27,-0.03
6.272,-0.015
6.274,-0.01
6.276,-0.005
6.278,-0.01
6.28,-0.025
6.282,-0.04
6.284,-0.055
6.286,-0.065
6.288,-0.07
6.29,-0.065
6.292,-0.055
6.294,-0.04
6.296,-0.025
6.298,-0.015
6.3,-0.01
6.302,-0.01
6.304,-0.015
6.306,-0.025
6.308,-0.035
6.31,-0.045
6.312,-0.055
6.314,-0.06
6.316,-0.06
6.318,-0.06
6.32,-0.065
6.322,-0.065
6.324,-0.065
6.326,-0.065
6.328,-0.06
6.33,-0.055
6.332,-0.045
6.334,-0.03
6.336,-0.015
6.338,0
6.34,0.015
6.342,0.02
6.344,0.02
6.346,0.01
6.348,-0.005
6.35,-0.02
6.352,-0.04
6.354,-0.05
6.356,-0.055
6.358,-0.055
6.36,-0.045
6.362,-0.035
6.364,-0.02
6.366,-0.01
6.368,0
6.37,0.005
6.372,0.005
6.374,0
6.376,0
6.378,-0.005
6.38,0
6.382,0
6.384,0.005
6.386,0.015
6.388,0.02
6.39,0.025
6.392,0.025
6.394,0.02
6.396,0.01
6.398,-0.005
6.4,-0.015
6.402,-0.03
6.404,-0.045
6.406,-0.055
6.408,-0.06
6.41,-0.065
6.412,-0.06
6.414,-0.055
6.416,-0.05
6.418,-0.04
6.42,-0.03
6.422,-0.025
6.424,-0.02
6.426,-0.015
6.428,-0.02
6.43,-0.025
6.432,-0.035
6.434,-0.045
6.436,-0.06
6.438,-0.07
6.44,-0.08
6.442,-0.09
6.444,-0.09
6.446,-0.09
6.448,-0.085
6.45,-0.075
6.452,-0.065
6.454,-0.05
6.456,-0.03
6.458,-0.01
6.46,0.005
6.462,0.015
6.464,0.02
6.466,0.02
6.468,0.01
6.47,-0.005
6.472,-0.02
6.474,-0.04
6.476,-0.05
6.478,-0.05
6.48,-0.035
6.482,-0.01
6.484,0.025
6.486,0.07
6.488,0.12
6.49,0.165
6.492,0.205
6.494,0.23
6.496,0.25
6.498,0.255
6.5,0.25
6.502,0.24
6.504,0.215
6.506,0.19
6.508,0.155
6.51,0.11
6.512,0.065
6.514,0.01
6.516,-0.045
6.518,-0.095
6.52,-0.135
6.522,-0.16
6.524,-0.165
6.526,-0.16
6.528,-0.135
6.53,-0.105
6.532,-0.07
6.534,-0.045
6.536,-0.025
6.538,-0.02
6.54,-0.03
6.542,-0.045
6.544,-0.065
6.546,-0.08
6.548,-0.09
6.55,-0.09
6.552,-0.085
6.554,-0.075
6.556,-0.06
6.558,-0.045
6.56,-0.03
6.562,-0.025
6.564,-0.025
6.566,-0.025
6.568,-0.025
6.57,-0.03
6.572,-0.03
6.574,-0.035
6.576,-0.035
6.578,-0.04
6.58,-0.04
6.582,-0.04
6.584,-0.04
6.586,-0.04
6.588,-0.03
6.59,-0.02
6.592,-0.01
6.594,0.005
6.596,0.015
6.598,0.02
6.6,0.02
6.602,0.01
6.604,0
6.606,-0.015
6.608,-0.03
6.61,-0.04
6.612,-0.04
6.614,-0.04
6.616,-0.03
6.618,-0.02
6.62,-0.01
6.622,0
6.624,0.005
6.626,0.005
6.628,0.005
6.63,0
6.632,-0.01
6.634,-0.01
6.636,-0.01
6.638,-0.005
6.64,0.005
6.642,0.02
6.644,0.035
6.646,0.05
6.648,0.06
6.65,0.07
6.652,0.07
6.654,0.06
6.656,0.055
6.658,0.04
6.66,0.03
6.662,0.025
6.664,0.025
6.666,0.03
6.668,0.04
6.67,0.05
6.672,0.06
6.674,0.07
6.676,0.07
6.678,0.07
6.68,0.065
6.682,0.055
6.684,0.05
6.686,0.045
6.688,0.045
6.69,0.055
6.692,0.065
6.694,0.085
6.696,0.1
6.698,0.115
6.7,0.125
6.702,0.13
6.704,0.13
6.706,0.125
6.708,0.12
6.71,0.12
6.712,0.12
6.714,0.125
6.716,0.135
6.718,0.15
6.72,0.165
6.722,0.18
6.724,0.195
6.726,0.205
6.728,0.215
6.73,0.215
6.732,0.21
6.734,0.205
6.736,0.2
6.738,0.195
6.74,0.19
6.742,0.19
6.744,0.19
6.746,0.19
6.748,0.195
6.75,0.195
6.752,0.2
6.754,0.205
6.756,0.21
6.758,0.21
6.76,0.205
6.762,0.2
6.764,0.195
6.766,0.18
6.768,0.17
6.77,0.155
6.772,0.14
6.774,0.125
6.776,0.115
6.778,0.1
6.78,0.09
6.782,0.075
6.784,0.065
6.786,0.045
6.788,0.025
6.79,0.005
6.792,-0.015
6.794,-0.03
6.796,-0.045
6.798,-0.055
6.8,-0.055
6.802,-0.055
6.804,-0.05
6.806,-0.04
6.808,-0.035
6.81,-0.03
6.812,-0.03
6.814,-0.03
6.816,-0.035
6.818,-0.04
6.82,-0.045
6.822,-0.05
6.824,-0.05
6.826,-0.05
6.828,-0.05
6.83,-0.05
6.832,-0.055
6.834,-0.06
6.836,-0.06
6.838,-0.065
6.84,-0.065
6.842,-0.065
6.844,-0.065
6.846,-0.055
6.848,-0.05
6.85,-0.045
6.852,-0.04
6.854,-0.04
6.856,-0.04
6.858,-0.045
6.86,-0.05
6.862,-0.06
6.864,-0.065
6.866,-0.075
6.868,-0.075
6.87,-0.075
6.872,-0.075
6.874,-0.07
6.876,-0.06
6.878,-0.05
6.88,-0.04
6.882,-0.03
6.884,-0.025
6.886,-0.02
6.888,-0.025
6.89,-0.035
6.892,-0.045
6.894,-0.055
6.896,-0.07
6.898,-0.075
6.9,-0.08
6.902,-0.075
6.904,-0.07
6.906,-0.06
6.908,-0.05
6.91,-0.04
6.912,-0.035
6.914,-0.03
6.916,-0.035
6.918,-0.04
6.92,-0.045
6.922,-0.05
6.924,-0.05
6.926,-0.05
6.928,-0.05
6.93,-0.045
6.932,-0.04
6.934,-0.04
6.936,-0.045
6.938,-0.05
6.94,-0.055
6.942,-0.06
6.944,-0.06
6.946,-0.06
6.948,-0.05
6.95,-0.04
6.952,-0.03
6.954,-0.015
6.956,-0.01
6.958,-0.005
6.96,-0.005
6.962,-0.01
6.964,-0.02
6.966,-0.025
6.968,-0.035
6.97,-0.04
6.972,-0.04
6.974,-0.04
6.976,-0.04
6.978,-0.04
6.98,-0.045
6.982,-0.05
6.984,-0.055
6.986,-0.06
6.988,-0.065
6.99,-0.065
6.992,-0.06
6.994,-0.055
6.996,-0.05
6.998,-0.04
7,-0.04
7.002,-0.04
7.004,-0.045
7.006,-0.05
7.008,-0.06
7.01,-0.06
7.012,-0.065
7.014,-0.06
7.016,-0.055
7.018,-0.045
7.02,-0.04
7.022,-0.035
7.024,-0.04
7.026,-0.045
7.028,-0.05
7.03,-0.06
7.032,-0.065
7.034,-0.065
7.036,-0.06
7.038,-0.05
7.04,-0.04
7.042,-0.03
7.044,-0.025
7.046,-0.025
7.048,-0.03
7.05,-0.04
7.052,-0.05
7.054,-0.06
7.056,-0.065
7.058,-0.065
7.06,-0.06
7.062,-0.05
7.064,-0.04
7.066,-0.03
7.068,-0.025
7.07,-0.025
7.072,-0.03
7.074,-0.04
7.076,-0.05
7.078,-0.06
7.08,-0.07
7.082,-0.07
7.084,-0.07
7.086,-0.07
7.088,-0.07
7.09,-0.065
7.092,-0.06
7.094,-0.06
7.096,-0.05
7.098,-0.045
7.1,-0.035
7.102,-0.02
7.104,-0.01
7.106,-0.005
7.108,-0.005
7.11,-0.005
7.112,-0.015
7.114,-0.03
7.116,-0.04
7.118,-0.045
7.12,-0.045
7.122,-0.04
7.124,-0.03
7.126,-0.01
7.128,0.01
7.13,0.02
7.132,0.03
7.134,0.035
7.136,0.03
7.138,0.02
7.14,0.01
7.142,0
7.144,-0.005
7.146,-0.01
7.148,-0.015
7.15,-0.02
7.152,-0.02
7.154,-0.025
7.156,-0.035
7.158,-0.04
7.16,-0.045
7.162,-0.045
7.164,-0.04
7.166,-0.03
7.168,-0.02
7.17,-0.01
7.172,-0.005
7.174,-0.005
7.176,-0.01
7.178,-0.02
7.18,-0.04
7.182,-0.055
7.184,-0.065
7.186,-0.075
7.188,-0.075
7.19,-0.07
7.192,-0.06
7.194,-0.05
7.196,-0.04
7.198,-0.035
7.2,-0.04
7.202,-0.045
7.204,-0.05
7.206,-0.055
7.208,-0.055
7.21,-0.055
7.212,-0.045
7.214,-0.03
7.216,-0.01
7.218,0.005
7.22,0.02
7.222,0.025
7.224,0.02
7.226,0.01
7.228,-0.005
7.23,-0.02
7.232,-0.035
7.234,-0.045
7.236,-0.045
7.238,-0.03
7.24,-0.01
7.242,0.02
7.244,0.05
7.246,0.085
7.248,0.12
7.25,0.15
7.252,0.17
7.254,0.185
7.256,0.195
7.258,0.195
7.26,0.19
7.262,0.17
7.264,0.15
7.266,0.115
7.268,0.07
7.27,0.02
7.272,-0.035
7.274,-0.09
7.276,-0.135
7.278,-0.165
7.28,-0.175
7.282,-0.17
7.284,-0.145
7.286,-0.115
7.288,-0.075
7.29,-0.045
7.292,-0.02
7.294,-0.01
7.296,-0.015
7.298,-0.025
7.3,-0.045
7.302,-0.06
7.304,-0.07
7.306,-0.07
7.308,-0.06
7.31,-0.045
7.312,-0.025
7.314,-0.01
7.316,-0.005
7.318,-0.005
7.32,-0.015
7.322,-0.03
7.324,-0.045
7.326,-0.06
7.328,-0.065
7.33,-0.06
7.332,-0.05
7.334,-0.04
7.336,-0.03
7.338,-0.02
7.34,-0.015
7.342,-0.02
7.344,-0.03
7.346,-0.045
7.348,-0.06
7.35,-0.07
7.352,-0.08
7.354,-0.08
7.356,-0.075
7.358,-0.06
7.36,-0.04
7.362,-0.02
7.364,0.005
7.366,0.025
7.368,0.04
7.37,0.045
7.372,0.045
7.374,0.04
7.376,0.03
7.378,0.015
7.38,0
7.382,-0.005
7.384,-0.01
7.386,-0.005
7.388,0
7.39,0.01
7.392,0.02
7.394,0.025
7.396,0.03
7.398,0.025
7.4,0.015
7.402,0.005
7.404,0
7.406,-0.005
7.408,-0.005
7.41,0
7.412,0.01
7.414,0.02
7.416,0.035
7.418,0.045
7.42,0.055
7.422,0.055
7.424,0.055
7.426,0.05
7.428,0.045
7.43,0.04
7.432,0.035
7.434,0.035
7.436,0.04
7.438,0.05
7.44,0.06
7.442,0.07
7.444,0.085
7.446,0.1
7.448,0.11
7.45,0.12
7.452,0.12
7.454,0.125
7.456,0.12
7.458,0.115
7.46,0.115
7.462,0.11
7.464,0.11
7.466,0.12
7.468,0.125
7.47,0.14
7.472,0.155
7.474,0.175
7.476,0.185
7.478,0.195
7.48,0.205
7.482,0.205
7.484,0.2
7.486,0.195
7.488,0.19
7.49,0.185
7.492,0.185
7.494,0.185
7.496,0.19
7.498,0.2
7.5,0.205
7.502,0.215
7.504,0.22
7.506,0.22
7.508,0.22
7.51,0.215
7.512,0.21
7.514,0.205
7.516,0.195
7.518,0.185
7.52,0.175
7.522,0.17
7.524,0.16
7.526,0.15
7.528,0.14
7.53,0.13
7.532,0.12
7.534,0.11
7.536,0.1
7.538,0.09
7.54,0.08
7.542,0.065
7.544,0.055
7.546,0.045
7.548,0.03
7.55,0.02
7.552,0.01
7.554,0
7.556,-0.01
7.558,-0.015
7.56,-0.015
7.562,-0.02
7.564,-0.02
7.566,-0.02
7.568,-0.025
7.57,-0.025
7.572,-0.03
7.574,-0.035
7.576,-0.045
7.578,-0.05
7.58,-0.055
7.582,-0.06
7.584,-0.06
7.586,-0.06
7.588,-0.055
7.59,-0.055
7.592,-0.05
7.594,-0.05
7.596,-0.045
7.598,-0.045
7.6,-0.045
7.602,-0.05
7.604,-0.05
7.606,-0.05
7.608,-0.055
7.61,-0.055
7.612,-0.055
7.614,-0.055
7.616,-0.055
7.618,-0.05
7.62,-0.045
7.622,-0.04
7.624,-0.03
7.626,-0.025
7.628,-0.02
7.63,-0.02
7.632,-0.02
7.634,-0.025
7.636,-0.03
7.638,-0.04
7.64,-0.045
7.642,-0.05
7.644,-0.05
7.646,-0.05
7.648,-0.045
7.65,-0.04
7.652,-0.035
7.654,-0.03
7.656,-0.03
7.658,-0.035
7.66,-0.04
7.662,-0.05
7.664,-0.06
7.666,-0.07
7.668,-0.07
7.67,-0.07
7.672,-0.065
7.674,-0.055
7.676,-0.04
7.678,-0.025
7.68,-0.01
7.682,0
7.684,0
7.686,0
7.688,-0.01
7.69,-0.03
7.692,-0.045
7.694,-0.065
7.696,-0.08
7.698,-0.085
7.7,-0.085
7.702,-0.075
7.704,-0.06
7.706,-0.04
7.708,-0.02
7.71,-0.005
7.712,0
7.714,0
7.716,-0.005
7.718,-0.02
7.72,-0.03
7.722,-0.045
7.724,-0.05
7.726,-0.05
7.728,-0.045
7.73,-0.04
7.732,-0.03
7.734,-0.02
7.736,-0.015
7.738,-0.015
7.74,-0.02
7.742,-0.025
7.744,-0.03
7.746,-0.035
7.748,-0.035
7.75,-0.035
7.752,-0.035
7.754,-0.035
7.756,-0.035
7.758,-0.04
7.76,-0.045
7.762,-0.05
7.764,-0.06
7.766,-0.06
7.768,-0.06
7.77,-0.055
7.772,-0.045
7.774,-0.035
7.776,-0.03
7.778,-0.025
7.78,-0.025
7.782,-0.03
7.784,-0.04
7.786,-0.05
7.788,-0.06
7.79,-0.07
7.792,-0.075
7.794,-0.075
7.796,-0.07
7.798,-0.06
7.8,-0.055
7.802,-0.05
7.804,-0.045
7.806,-0.045
7.808,-0.045
7.81,-0.045
7.812,-0.045
7.814,-0.045
7.816,-0.045
7.818,-0.045
7.82,-0.045
7.822,-0.045
7.824,-0.045
7.826,-0.045
7.828,-0.04
7.83,-0.04
7.832,-0.03
7.834,-0.02
7.836,-0.01
7.838,0.005
7.84,0.02
7.842,0.03
7.844,0.035
7.846,0.04
7.848,0.035
7.85,0.025
7.852,0.01
7.854,0
7.856,-0.01
7.858,-0.02
7.86,-0.025
7.862,-0.025
7.864,-0.02
7.866,-0.02
7.868,-0.02
7.87,-0.015
7.872,-0.015
7.874,-0.015
7.876,-0.015
7.878,-0.01
7.88,-0.01
7.882,-0.005
7.884,0
7.886,-0.005
7.888,-0.005
7.89,-0.015
7.892,-0.03
7.894,-0.04
7.896,-0.055
7.898,-0.07
7.9,-0.08
7.902,-0.085
7.904,-0.085
7.906,-0.08
7.908,-0.07
7.91,-0.06
7.912,-0.055
7.914,-0.05
7.916,-0.045
7.918,-0.045
7.92,-0.05
7.922,-0.055
7.924,-0.065
7.926,-0.07
7.928,-0.07
7.93,-0.065
7.932,-0.06
7.934,-0.05
7.936,-0.04
7.938,-0.03
7.94,-0.02
7.942,-0.015
7.944,-0.015
7.946,-0.015
7.948,-0.02
7.95,-0.02
7.952,-0.015
7.954,-0.005
7.956,0.01
7.958,0.03
7.96,0.055
7.962,0.08
7.964,0.11
7.966,0.135
7.968,0.155
7.97,0.175
7.972,0.195
7.974,0.21
7.976,0.22
7.978,0.22
7.98,0.21
7.982,0.19
7.984,0.155
7.986,0.105
7.988,0.04
7.99,-0.025
7.992,-0.09
7.994,-0.14
7.996,-0.18
7.998,-0.195
8,-0.19
8.002,-0.17
8.004,-0.14
8.006,-0.11
8.008,-0.08
8.01,-0.06
8.012,-0.045
8.014,-0.04
8.016,-0.045
8.018,-0.045
8.02,-0.05
8.022,-0.05
8.024,-0.05
8.026,-0.045
8.028,-0.04
8.03,-0.035
8.032,-0.035
8.034,-0.035
8.036,-0.035
8.038,-0.04
8.04,-0.04
8.042,-0.035
8.044,-0.03
8.046,-0.025
8.048,-0.02
8.05,-0.025
8.052,-0.03
8.054,-0.045
8.056,-0.06
8.058,-0.075
8.06,-0.09
8.062,-0.095
8.064,-0.09
8.066,-0.08
8.068,-0.06
8.07,-0.035
8.072,-0.015
8.074,0
8.076,0.01
8.078,0.01
8.08,0.005
8.082,-0.005
8.084,-0.015
8.086,-0.02
8.088,-0.025
8.09,-0.025
8.092,-0.025
8.094,-0.025
8.096,-0.02
8.098,-0.02
8.1,-0.02
8.102,-0.02
8.104,-0.02
8.106,-0.02
8.108,-0.015
8.11,-0.005
8.112,0.005
8.114,0.015
8.116,0.025
8.118,0.035
8.12,0.04
8.122,0.045
8.124,0.045
8.126,0.045
8.128,0.045
8.13,0.045
8.132,0.045
8.134,0.04
8.136,0.04
8.138,0.04
8.14,0.035
8.142,0.03
8.144,0.03
8.146,0.03
8.148,0.035
8.15,0.045
8.152,0.055
8.154,0.07
8.156,0.085
8.158,0.1
8.16,0.105
8.162,0.105
8.164,0.1
8.166,0.085
8.168,0.075
8.17,0.065
8.172,0.06
8.174,0.06
8.176,0.075
8.178,0.09
8.18,0.115
8.182,0.14
8.184,0.165
8.186,0.18
8.188,0.195
8.19,0.2
8.192,0.205
8.194,0.2
8.196,0.195
8.198,0.19
8.2,0.19
8.202,0.19
8.204,0.195
8.206,0.205
8.208,0.21
8.21,0.215
8.212,0.22
8.214,0.225
8.216,0.225
8.218,0.225
8.22,0.22
8.222,0.215
8.224,0.21
8.226,0.21
8.228,0.205
8.23,0.205
8.232,0.205
8.234,0.205
8.236,0.205
8.238,0.2
8.24,0.19
8.242,0.18
8.244,0.165
8.246,0.145
8.248,0.125
8.25,0.1
8.252,0.08
8.254,0.06
8.256,0.045
8.258,0.03
8.26,0.015
8.262,0.005
8.264,0
8.266,-0.005
8.268,-0.005
8.27,-0.005
8.272,-0.005
8.274,-0.005
8.276,-0.005
8.278,-0.005
8.28,-0.005
8.282,-0.005
8.284,-0.01
8.286,-0.01
8.288,-0.015
8.29,-0.015
8.292,-0.02
8.294,-0.02
8.296,-0.025
8.298,-0.035
8.3,-0.04
8.302,-0.05
8.304,-0.06
8.306,-0.07
8.308,-0.07
8.31,-0.065
8.312,-0.055
8.314,-0.045
8.316,-0.03
8.318,-0.015
8.32,-0.005
8.322,-0.005
8.324,-0.01
8.326,-0.02
8.328,-0.04
8.33,-0.055
8.332,-0.065
8.334,-0.07
8.336,-0.07
8.338,-0.065
8.34,-0.055
8.342,-0.05
8.344,-0.04
8.346,-0.04
8.348,-0.045
8.35,-0.05
8.352,-0.055
8.354,-0.06
8.356,-0.06
8.358,-0.055
8.36,-0.045
8.362,-0.04
8.364,-0.03
8.366,-0.025
8.368,-0.03
8.37,-0.035
8.372,-0.045
8.374,-0.055
8.376,-0.065
8.378,-0.07
8.38,-0.065
8.382,-0.055
8.384,-0.04
8.386,-0.025
8.388,-0.015
8.39,-0.005
8.392,0
8.394,0
8.396,-0.005
8.398,-0.015
8.4,-0.025
8.402,-0.035
8.404,-0.045
8.406,-0.055
8.408,-0.06
8.41,-0.065
8.412,-0.065
8.414,-0.065
8.416,-0.06
8.418,-0.055
8.42,-0.045
8.422,-0.035
8.424,-0.03
8.426,-0.025
8.428,-0.025
8.43,-0.025
8.432,-0.03
8.434,-0.04
8.436,-0.045
8.438,-0.045
8.44,-0.045
8.442,-0.04
8.444,-0.025
8.446,-0.01
8.448,0
8.45,0.015
8.452,0.02
8.454,0.015
8.456,0.005
8.458,-0.01
8.46,-0.03
8.462,-0.05
8.464,-0.07
8.466,-0.08
8.468,-0.08
8.47,-0.075
8.472,-0.06
8.474,-0.045
8.476,-0.025
8.478,-0.01
8.48,0.005
8.482,0.005
8.484,0.005
8.486,-0.005
8.488,-0.015
8.49,-0.025
8.492,-0.03
8.494,-0.035
8.496,-0.035
8.498,-0.035
8.5,-0.035
8.502,-0.03
8.504,-0.035
8.506,-0.04
8.508,-0.05
8.51,-0.06
8.512,-0.07
8.514,-0.075
8.516,-0.08
8.518,-0.08
8.52,-0.075
8.522,-0.065
8.524,-0.055
8.526,-0.045
8.528,-0.03
8.53,-0.025
8.532,-0.025
8.534,-0.025
8.536,-0.035
8.538,-0.04
8.54,-0.05
8.542,-0.055
8.544,-0.06
8.546,-0.055
8.548,-0.05
8.55,-0.045
8.552,-0.035
8.554,-0.025
8.556,-0.02
8.558,-0.015
8.56,-0.015
8.562,-0.015
8.564,-0.02
8.566,-0.025
8.568,-0.025
8.57,-0.025
8.572,-0.02
8.574,-0.02
8.576,-0.015
8.578,-0.015
8.58,-0.02
8.582,-0.02
8.584,-0.03
8.586,-0.035
8.588,-0.045
8.59,-0.05
8.592,-0.05
8.594,-0.05
8.596,-0.05
8.598,-0.045
8.6,-0.045
8.602,-0.045
8.604,-0.05
8.606,-0.055
8.608,-0.065
8.61,-0.07
8.612,-0.075
8.614,-0.075
8.616,-0.07
8.618,-0.065
8.62,-0.055
8.622,-0.04
8.624,-0.025
8.626,-0.015
8.628,-0.005
8.63,0.005
8.632,0.01
8.634,0.015
8.636,0.015
8.638,0.01
8.64,0.005
8.642,0
8.644,-0.005
8.646,-0.01
8.648,-0.01
8.65,-0.01
8.652,-0.005
8.654,0
8.656,0.005
8.658,0.015
8.66,0.02
8.662,0.02
8.664,0.02
8.666,0.02
8.668,0.015
8.67,0.01
8.672,0.005
8.674,0.005
8.676,0.005
8.678,0.01
8.68,0.01
8.682,0.015
8.684,0.01
8.686,0.005
8.688,-0.005
8.69,-0.02
8.692,-0.04
8.694,-0.055
8.696,-0.07
8.698,-0.08
8.7,-0.085
8.702,-0.08
8.704,-0.07
8.706,-0.06
8.708,-0.05
8.71,-0.045
8.712,-0.045
8.714,-0.05
8.716,-0.06
8.718,-0.075
8.72,-0.09
8.722,-0.1
8.724,-0.105
8.726,-0.1
8.728,-0.09
8.73,-0.075
8.732,-0.055
8.734,-0.04
8.736,-0.025
8.738,-0.02
8.74,-0.02
8.742,-0.025
8.744,-0.03
8.746,-0.035
8.748,-0.04
8.75,-0.035
8.752,-0.02
8.754,0
8.756,0.025
8.758,0.06
8.76,0.09
8.762,0.12
8.764,0.145
8.766,0.17
8.768,0.19
8.77,0.205
8.772,0.215
8.774,0.225
8.776,0.23
8.778,0.225
8.78,0.21
8.782,0.19
8.784,0.15
8.786,0.11
8.788,0.055
8.79,0.005
8.792,-0.04
8.794,-0.08
8.796,-0.105
8.798,-0.115
8.8,-0.115
8.802,-0.105
8.804,-0.09
8.806,-0.075
8.808,-0.065
8.81,-0.06
8.812,-0.06
8.814,-0.07
8.816,-0.08
8.818,-0.09
8.82,-0.095
8.822,-0.09
8.824,-0.08
8.826,-0.07
8.828,-0.05
8.83,-0.04
8.832,-0.025
8.834,-0.025
8.836,-0.025
8.838,-0.03
8.84,-0.04
8.842,-0.045
8.844,-0.045
8.846,-0.045
8.848,-0.035
8.85,-0.025
8.852,-0.015
8.854,-0.005
8.856,-0.005
8.858,-0.01
8.86,-0.02
8.862,-0.04
8.864,-0.06
8.866,-0.075
8.868,-0.08
8.87,-0.08
8.872,-0.075
8.874,-0.06
8.876,-0.04
8.878,-0.025
8.88,-0.015
8.882,-0.01
8.884,-0.015
8.886,-0.025
8.888,-0.04
8.89,-0.05
8.892,-0.06
8.894,-0.06
8.896,-0.05
8.898,-0.03
8.9,-0.01
8.902,0.01
8.904,0.025
8.906,0.035
8.908,0.03
8.91,0.02
8.912,0.005
8.914,-0.015
8.916,-0.03
8.918,-0.04
8.92,-0.04
8.922,-0.03
8.924,-0.015
8.926,0.005
8.928,0.025
8.93,0.04
8.932,0.05
8.934,0.055
8.936,0.05
8.938,0.045
8.94,0.035
8.942,0.025
8.944,0.02
8.946,0.02
8.948,0.025
8.95,0.035
8.952,0.04
8.954,0.05
8.956,0.055
8.958,0.055
8.96,0.055
8.962,0.055
8.964,0.05
8.966,0.055
8.968,0.055
8.97,0.065
8.972,0.075
8.974,0.085
8.976,0.1
8.978,0.115
8.98,0.12
8.982,0.13
8.984,0.13
8.986,0.13
8.988,0.13
8.99,0.13
8.992,0.13
8.994,0.135
8.996,0.14
8.998,0.145
9,0.155
9.002,0.17
9.004,0.18
9.006,0.19
9.008,0.2
9.01,0.21
9.012,0.215
9.014,0.22
9.016,0.22
9.018,0.225
9.02,0.22
9.022,0.22
9.024,0.215
9.026,0.21
9.028,0.205
9.03,0.195
9.032,0.185
9.034,0.175
9.036,0.165
9.038,0.15
9.04,0.14
9.042,0.13
9.044,0.12
9.046,0.115
9.048,0.11
9.05,0.11
9.052,0.105
9.054,0.1
9.056,0.09
9.058,0.075
9.06,0.055
9.062,0.035
9.064,0.01
9.066,-0.01
9.068,-0.03
9.07,-0.04
9.072,-0.04
9.074,-0.035
9.076,-0.02
9.078,-0.01
9.08,0.005
9.082,0.01
9.084,0.01
9.086,0
9.088,-0.01
9.09,-0.03
9.092,-0.045
9.094,-0.06
9.096,-0.065
9.098,-0.065
9.1,-0.06
9.102,-0.05
9.104,-0.045
9.106,-0.035
9.108,-0.035
9.11,-0.035
9.112,-0.04
9.114,-0.05
9.116,-0.06
9.118,-0.065
9.12,-0.065
9.122,-0.065
9.124,-0.06
9.126,-0.055
9.128,-0.05
9.13,-0.045
9.132,-0.045
9.134,-0.05
9.136,-0.055
9.138,-0.065
9.14,-0.07
9.142,-0.08
9.144,-0.085
9.146,-0.085
9.148,-0.08
9.15,-0.075
9.152,-0.07
9.154,-0.06
9.156,-0.05
9.158,-0.04
9.16,-0.035
9.162,-0.03
9.164,-0.025
9.166,-0.025
9.168,-0.03
9.17,-0.03
9.172,-0.04
9.174,-0.045
9.176,-0.055
9.178,-0.06
9.18,-0.07
9.182,-0.075
9.184,-0.075
9.186,-0.075
9.188,-0.07
9.19,-0.065
9.192,-0.06
9.194,-0.055
9.196,-0.055
9.198,-0.055
9.2,-0.055
9.202,-0.06
9.204,-0.06
9.206,-0.06
9.208,-0.055
9.21,-0.05
9.212,-0.045
9.214,-0.035
9.216,-0.03
9.218,-0.02
9.22,-0.02
9.222,-0.02
9.224,-0.025
9.226,-0.03
9.228,-0.04
9.23,-0.05
9.232,-0.06
9.234,-0.065
9.236,-0.07
9.238,-0.07
9.24,-0.065
9.242,-0.06
9.244,-0.055
9.246,-0.045
9.248,-0.04
9.25,-0.035
9.252,-0.035
9.254,-0.035
9.256,-0.035
9.258,-0.035
9.26,-0.035
9.262,-0.03
9.264,-0.025
9.266,-0.02
9.268,-0.015
9.27,-0.015
9.272,-0.015
9.274,-0.02
9.276,-0.03
9.278,-0.045
9.28,-0.055
9.282,-0.07
9.284,-0.08
9.286,-0.085
9.288,-0.085
9.29,-0.08
9.292,-0.07
9.294,-0.055
9.296,-0.045
9.298,-0.03
9.3,-0.025
9.302,-0.02
9.304,-0.025
9.306,-0.03
9.308,-0.035
9.31,-0.045
9.312,-0.055
9.314,-0.06
9.316,-0.06
9.318,-0.06
9.32,-0.055
9.322,-0.045
9.324,-0.035
9.326,-0.025
9.328,-0.02
9.33,-0.015
9.332,-0.015
9.334,-0.02
9.336,-0.03
9.338,-0.04
9.34,-0.05
9.342,-0.06
9.344,-0.065
9.346,-0.07
9.348,-0.065
9.35,-0.06
9.352,-0.055
9.354,-0.045
9.356,-0.035
9.358,-0.03
9.36,-0.025
9.362,-0.02
9.364,-0.02
9.366,-0.025
9.368,-0.03
9.37,-0.035
9.372,-0.04
9.374,-0.04
9.376,-0.045
9.378,-0.05
9.38,-0.05
9.382,-0.05
9.384,-0.05
9.386,-0.05
9.388,-0.05
9.39,-0.05
9.392,-0.05
9.394,-0.05
9.396,-0.05
9.398,-0.045
9.4,-0.04
9.402,-0.035
9.404,-0.025
9.406,-0.02
9.408,-0.015
9.41,-0.01
9.412,-0.01
9.414,-0.005
9.416,-0.01
9.418,-0.01
9.42,-0.015
9.422,-0.02
9.424,-0.02
9.426,-0.025
9.428,-0.03
9.43,-0.03
9.432,-0.03
9.434,-0.03
9.436,-0.03
9.438,-0.03
9.44,-0.025
9.442,-0.015
9.444,-0.005
9.446,0.005
9.448,0.015
9.45,0.025
9.452,0.035
9.454,0.04
9.456,0.045
9.458,0.045
9.46,0.045
9.462,0.04
9.464,0.04
9.466,0.035
9.468,0.03
9.47,0.025
9.472,0.025
9.474,0.02
9.476,0.015
9.478,0.01
9.48,0
9.482,-0.01
9.484,-0.02
9.486,-0.025
9.488,-0.035
9.49,-0.04
9.492,-0.04
9.494,-0.035
9.496,-0.03
9.498,-0.02
9.5,-0.015
9.502,-0.01
9.504,-0.005
9.506,-0.005
9.508,-0.01
9.51,-0.015
9.512,-0.025
9.514,-0.03
9.516,-0.035
9.518,-0.035
9.52,-0.04
9.522,-0.04
9.524,-0.045
9.526,-0.05
9.528,-0.055
9.53,-0.055
9.532,-0.055
9.534,-0.05
9.536,-0.04
9.538,-0.025
9.54,-0.005
9.542,0.01
9.544,0.025
9.546,0.03
9.548,0.03
9.55,0.025
9.552,0.015
9.554,0
9.556,-0.01
9.558,-0.01
9.56,-0.01
9.562,-0.005
9.564,0.005
9.566,0.02
9.568,0.035
9.57,0.045
9.572,0.06
9.574,0.08
9.576,0.1
9.578,0.125
9.58,0.155
9.582,0.18
9.584,0.205
9.586,0.21
9.588,0.2
9.59,0.17
9.592,0.125
9.594,0.06
9.596,-0.005
9.598,-0.07
9.6,-0.115
9.602,-0.145
9.604,-0.155
9.606,-0.145
9.608,-0.115
9.61,-0.085
9.612,-0.055
9.614,-0.035
9.616,-0.025
9.618,-0.025
9.62,-0.035
9.622,-0.045
9.624,-0.06
9.626,-0.065
9.628,-0.065
9.63,-0.06
9.632,-0.055
9.634,-0.045
9.636,-0.035
9.638,-0.035
9.64,-0.035
9.642,-0.04
9.644,-0.045
9.646,-0.05
9.648,-0.055
9.65,-0.055
9.652,-0.055
9.654,-0.05
9.656,-0.04
9.658,-0.035
9.66,-0.025
9.662,-0.02
9.664,-0.01
9.666,-0.005
9.668,-0.005
9.67,0
9.672,0
9.674,-0.005
9.676,-0.005
9.678,-0.01
9.68,-0.015
9.682,-0.015
9.684,-0.015
9.686,-0.01
9.688,0
9.69,0.01
9.692,0.02
9.694,0.025
9.696,0.03
9.698,0.035
9.7,0.03
9.702,0.025
9.704,0.02
9.706,0.01
9.708,0.005
9.71,0
9.712,-0.005
9.714,-0.005
9.716,0
9.718,0
9.72,0.005
9.722,0.005
9.724,0.01
9.726,0.015
9.728,0.02
9.73,0.03
9.732,0.035
9.734,0.04
9.736,0.045
9.738,0.05
9.74,0.055
9.742,0.06
9.744,0.06
9.746,0.065
9.748,0.07
9.75,0.075
9.752,0.08
9.754,0.08
9.756,0.08
9.758,0.08
9.76,0.08
9.762,0.07
9.764,0.065
9.766,0.06
9.768,0.06
9.77,0.06
9.772,0.065
9.774,0.075
9.776,0.085
9.778,0.1
9.78,0.105
9.782,0.115
9.784,0.12
9.786,0.12
9.788,0.12
9.79,0.125
9.792,0.13
9.794,0.14
9.796,0.15
9.798,0.165
9.8,0.18
9.802,0.195
9.804,0.205
9.806,0.21
9.808,0.21
9.81,0.205
9.812,0.205
9.814,0.205
9.816,0.21
9.818,0.22
9.82,0.23
9.822,0.24
9.824,0.25
9.826,0.255
9.828,0.255
9.83,0.25
9.832,0.235
9.834,0.22
9.836,0.21
9.838,0.195
9.84,0.19
9.842,0.185
9.844,0.185
9.846,0.185
9.848,0.18
9.85,0.175
9.852,0.165
9.854,0.15
9.856,0.135
9.858,0.12
9.86,0.11
9.862,0.1
9.864,0.095
9.866,0.085
9.868,0.08
9.87,0.075
9.872,0.065
9.874,0.05
9.876,0.04
9.878,0.03
9.88,0.02
9.882,0.015
9.884,0.01
9.886,0.01
9.888,0.005
9.89,0.005
9.892,0.005
9.894,0
9.896,-0.005
9.898,-0.005
9.9,-0.01
9.902,-0.005
9.904,0
9.906,0.005
9.908,0.005
9.91,0.005
9.912,0
9.914,-0.01
9.916,-0.03
9.918,-0.045
9.92,-0.065
9.922,-0.075
9.924,-0.08
9.926,-0.08
9.928,-0.075
9.93,-0.065
9.932,-0.055
9.934,-0.045
9.936,-0.04
9.938,-0.045
9.94,-0.045
9.942,-0.05
9.944,-0.055
9.946,-0.06
9.948,-0.06
9.95,-0.055
9.952,-0.05
9.954,-0.04
9.956,-0.035
9.958,-0.03
9.96,-0.03
9.962,-0.03
9.964,-0.03
9.966,-0.03
9.968,-0.03
9.97,-0.03
9.972,-0.025
9.974,-0.025
9.976,-0.02
9.978,-0.02
9.98,-0.02
9.982,-0.025
9.984,-0.03
9.986,-0.035
9.988,-0.04
9.99,-0.045
9.992,-0.05
9.994,-0.05
9.996,-0.055
9.998,-0.05
