0,-0.09
0.002,-0.015
0.004,0.03
0.006,0.06
0.008,0.065
0.01,0.05
0.012,0.015
0.014,-0.02
0.016,-0.055
0.018,-0.07
0.02,-0.07
0.022,-0.055
0.024,-0.025
0.026,0.005
0.028,0.03
0.03,0.04
0.032,0.035
0.034,0.015
0.036,-0.015
0.038,-0.045
0.04,-0.075
0.042,-0.09
0.044,-0.095
0.046,-0.085
0.048,-0.07
0.05,-0.05
0.052,-0.03
0.054,-0.02
0.056,-0.02
0.058,-0.02
0.06,-0.03
0.062,-0.035
0.064,-0.045
0.066,-0.045
0.068,-0.04
0.07,-0.035
0.072,-0.025
0.074,-0.02
0.076,-0.02
0.078,-0.025
0.08,-0.035
0.082,-0.045
0.084,-0.055
0.086,-0.06
0.088,-0.06
0.09,-0.055
0.092,-0.045
0.094,-0.035
0.096,-0.03
0.098,-0.025
0.1,-0.025
0.102,-0.03
0.104,-0.035
0.106,-0.04
0.108,-0.05
0.11,-0.05
0.112,-0.045
0.114,-0.04
0.116,-0.035
0.118,-0.025
0.12,-0.015
0.122,-0.01
0.124,-0.005
0.126,-0.005
0.128,-0.005
0.13,-0.01
0.132,-0.01
0.134,-0.01
0.136,-0.01
0.138,-0.005
0.14,0.005
0.142,0.015
0.144,0.025
0.146,0.04
0.148,0.05
0.15,0.055
0.152,0.06
0.154,0.065
0.156,0.06
0.158,0.05
0.16,0.04
0.162,0.03
0.164,0.02
0.166,0.01
0.168,0.01
0.17,0.01
0.172,0.015
0.174,0.02
0.176,0.03
0.178,0.035
0.18,0.04
0.182,0.045
0.184,0.045
0.186,0.045
0.188,0.045
0.19,0.05
0.192,0.05
0.194,0.055
0.196,0.055
0.198,0.055
0.2,0.06
0.202,0.06
0.204,0.065
0.206,0.07
0.208,0.08
0.21,0.09
0.212,0.105
0.214,0.12
0.216,0.13
0.218,0.14
0.22,0.145
0.222,0.145
0.224,0.14
0.226,0.135
0.228,0.13
0.23,0.13
0.232,0.135
0.234,0.145
0.236,0.16
0.238,0.175
0.24,0.19
0.242,0.2
0.244,0.205
0.246,0.205
0.248,0.195
0.25,0.185
0.252,0.17
0.254,0.16
0.256,0.15
0.258,0.15
0.26,0.15
0.262,0.155
0.264,0.16
0.266,0.17
0.268,0.175
0.27,0.175
0.272,0.175
0.274,0.175
0.276,0.175
0.278,0.17
0.28,0.165
0.282,0.165
0.284,0.16
0.286,0.15
0.288,0.14
0.29,0.13
0.292,0.115
0.294,0.105
0.296,0.095
0.298,0.085
0.3,0.08
0.302,0.075
0.304,0.075
0.306,0.08
0.308,0.08
0.31,0.08
0.312,0.075
0.314,0.07
0.316,0.065
0.318,0.055
0.32,0.05
0.322,0.04
0.324,0.035
0.326,0.025
0.328,0.02
0.33,0.015
0.332,0.005
0.334,0
0.336,-0.01
0.338,-0.015
0.34,-0.02
0.342,-0.025
0.344,-0.03
0.346,-0.03
0.348,-0.03
0.35,-0.03
0.352,-0.02
0.354,-0.015
0.356,-0.01
0.358,-0.005
0.36,0
0.362,0.005
0.364,0.005
0.366,0
0.368,-0.005
0.37,-0.01
0.372,-0.015
0.374,-0.02
0.376,-0.03
0.378,-0.03
0.38,-0.03
0.382,-0.03
0.384,-0.025
0.386,-0.02
0.388,-0.01
0.39,-0.005
0.392,0
0.394,0
0.396,0
0.398,-0.005
0.4,-0.01
0.402,-0.02
0.404,-0.03
0.406,-0.035
0.408,-0.04
0.41,-0.045
0.412,-0.045
0.414,-0.045
0.416,-0.04
0.418,-0.04
0.42,-0.035
0.422,-0.035
0.424,-0.035
0.426,-0.04
0.428,-0.045
0.43,-0.045
0.432,-0.05
0.434,-0.05
0.436,-0.045
0.438,-0.04
0.44,-0.03
0.442,-0.02
0.444,-0.01
0.446,-0.005
0.448,0
0.45,-0.005
0.452,-0.015
0.454,-0.025
0.456,-0.035
0.458,-0.045
0.46,-0.045
0.462,-0.045
0.464,-0.035
0.466,-0.025
0.468,-0.015
0.47,-0.005
0.472,0
0.474,0
0.476,-0.005
0.478,-0.015
0.48,-0.025
0.482,-0.03
0.484,-0.035
0.486,-0.03
0.488,-0.025
0.49,-0.015
0.492,-0.005
0.494,0.005
0.496,0.01
0.498,0.01
0.5,0.005
0.502,-0.005
0.504,-0.015
0.506,-0.02
0.508,-0.03
0.51,-0.03
0.512,-0.035
0.514,-0.035
0.516,-0.035
0.518,-0.03
0.52,-0.03
0.522,-0.03
0.524,-0.03
0.526,-0.03
0.528,-0.03
0.53,-0.03
0.532,-0.03
0.534,-0.03
0.536,-0.03
0.538,-0.035
0.54,-0.04
0.542,-0.04
0.544,-0.045
0.546,-0.045
0.548,-0.04
0.55,-0.035
0.552,-0.03
0.554,-0.025
0.556,-0.02
0.558,-0.015
0.56,-0.015
0.562,-0.015
0.564,-0.015
0.566,-0.02
0.568,-0.02
0.57,-0.02
0.572,-0.02
0.574,-0.025
0.576,-0.03
0.578,-0.035
0.58,-0.045
0.582,-0.055
0.584,-0.06
0.586,-0.065
0.588,-0.065
0.59,-0.06
0.592,-0.045
0.594,-0.03
0.596,-0.015
0.598,-0.005
0.6,0
0.602,0
0.604,-0.01
0.606,-0.02
0.608,-0.035
0.61,-0.05
0.612,-0.055
0.614,-0.06
0.616,-0.055
0.618,-0.045
0.62,-0.035
0.622,-0.025
0.624,-0.015
0.626,-0.015
0.628,-0.02
0.63,-0.025
0.632,-0.035
0.634,-0.04
0.636,-0.04
0.638,-0.04
0.64,-0.035
0.642,-0.03
0.644,-0.025
0.646,-0.02
0.648,-0.02
0.65,-0.025
0.652,-0.03
0.654,-0.035
0.656,-0.045
0.658,-0.05
0.66,-0.055
0.662,-0.055
0.664,-0.05
0.666,-0.045
0.668,-0.045
0.67,-0.045
0.672,-0.045
0.674,-0.05
0.676,-0.05
0.678,-0.055
0.68,-0.055
0.682,-0.05
0.684,-0.05
0.686,-0.045
0.688,-0.04
0.69,-0.035
0.692,-0.035
0.694,-0.04
0.696,-0.045
0.698,-0.05
0.7,-0.055
0.702,-0.055
0.704,-0.055
0.706,-0.05
0.708,-0.04
0.71,-0.03
0.712,-0.02
0.714,-0.01
0.716,-0.01
0.718,-0.01
0.72,-0.015
0.722,-0.025
0.724,-0.035
0.726,-0.045
0.728,-0.055
0.73,-0.065
0.732,-0.07
0.734,-0.07
0.736,-0.065
0.738,-0.06
0.74,-0.055
0.742,-0.045
0.744,-0.04
0.746,-0.03
0.748,-0.03
0.75,-0.025
0.752,-0.03
0.754,-0.035
0.756,-0.045
0.758,-0.05
0.76,-0.06
0.762,-0.06
0.764,-0.06
0.766,-0.06
0.768,-0.05
0.77,-0.04
0.772,-0.03
0.774,-0.02
0.776,-0.015
0.778,-0.015
0.78,-0.02
0.782,-0.03
0.784,-0.035
0.786,-0.04
0.788,-0.04
0.79,-0.035
0.792,-0.02
0.794,-0.005
0.796,0.01
0.798,0.02
0.8,0.025
0.802,0.025
0.804,0.015
0.806,0
0.808,-0.01
0.81,-0.02
0.812,-0.025
0.814,-0.025
0.816,-0.015
0.818,0
0.82,0.015
0.822,0.025
0.824,0.035
0.826,0.04
0.828,0.035
0.83,0.03
0.832,0.02
0.834,0.01
0.836,0
0.838,-0.01
0.84,-0.015
0.842,-0.02
0.844,-0.02
0.846,-0.025
0.848,-0.03
0.85,-0.035
0.852,-0.04
0.854,-0.04
0.856,-0.045
0.858,-0.045
0.86,-0.05
0.862,-0.045
0.864,-0.045
0.866,-0.045
0.868,-0.045
0.87,-0.045
0.872,-0.045
0.874,-0.045
0.876,-0.05
0.878,-0.05
0.88,-0.05
0.882,-0.05
0.884,-0.05
0.886,-0.05
0.888,-0.05
0.89,-0.055
0.892,-0.055
0.894,-0.06
0.896,-0.065
0.898,-0.065
0.9,-0.06
0.902,-0.05
0.904,-0.025
0.906,0.01
0.908,0.065
0.91,0.135
0.912,0.21
0.914,0.295
0.916,0.38
0.918,0.455
0.92,0.51
0.922,0.545
0.924,0.555
0.926,0.535
0.928,0.49
0.93,0.42
0.932,0.34
0.934,0.255
0.936,0.175
0.938,0.105
0.94,0.055
0.942,0.02
0.944,0
0.946,-0.005
0.948,-0.005
0.95,0
0.952,0.005
0.954,0.005
0.956,0
0.958,-0.01
0.96,-0.02
0.962,-0.03
0.964,-0.045
0.966,-0.055
0.968,-0.065
0.97,-0.07
0.972,-0.08
0.974,-0.085
0.976,-0.085
0.978,-0.085
0.98,-0.08
0.982,-0.075
0.984,-0.065
0.986,-0.055
0.988,-0.045
0.99,-0.035
0.992,-0.03
0.994,-0.035
0.996,-0.04
0.998,-0.05
1,-0.065
1.002,-0.075
1.004,-0.085
1.006,-0.085
1.008,-0.085
1.01,-0.075
1.012,-0.065
1.014,-0.055
1.016,-0.05
1.018,-0.045
1.02,-0.045
1.022,-0.05
1.024,-0.06
1.026,-0.065
1.028,-0.075
1.03,-0.08
1.032,-0.08
1.034,-0.08
1.036,-0.08
1.038,-0.08
1.04,-0.075
1.042,-0.075
1.044,-0.075
1.046,-0.075
1.048,-0.07
1.05,-0.07
1.052,-0.065
1.054,-0.06
1.056,-0.055
1.058,-0.05
1.06,-0.04
1.062,-0.04
1.064,-0.04
1.066,-0.045
1.068,-0.05
1.07,-0.06
1.072,-0.065
1.074,-0.075
1.076,-0.08
1.078,-0.08
1.08,-0.075
1.082,-0.07
1.084,-0.06
1.086,-0.05
1.088,-0.045
1.09,-0.035
1.092,-0.03
1.094,-0.025
1.096,-0.02
1.098,-0.02
1.1,-0.02
1.102,-0.02
1.104,-0.025
1.106,-0.025
1.108,-0.03
1.11,-0.035
1.112,-0.04
1.114,-0.045
1.116,-0.045
1.118,-0.05
1.12,-0.05
1.122,-0.05
1.124,-0.045
1.126,-0.04
1.128,-0.04
1.13,-0.035
1.132,-0.03
1.134,-0.02
1.136,-0.015
1.138,-0.01
1.14,-0.005
1.142,0
1.144,0.005
1.146,0.005
1.148,0.005
1.15,0.005
1.152,0.005
1.154,0.005
1.156,0.005
1.158,0.01
1.16,0.02
1.162,0.035
1.164,0.05
1.166,0.065
1.168,0.085
1.17,0.1
1.172,0.11
1.174,0.11
1.176,0.11
1.178,0.105
1.18,0.095
1.182,0.085
1.184,0.075
1.186,0.065
1.188,0.06
1.19,0.055
1.192,0.055
1.194,0.06
1.196,0.07
1.198,0.075
1.2,0.09
1.202,0.1
1.204,0.115
1.206,0.125
1.208,0.135
1.21,0.145
1.212,0.145
1.214,0.14
1.216,0.13
1.218,0.115
1.22,0.095
1.222,0.075
1.224,0.055
1.226,0.04
1.228,0.03
1.23,0.025
1.232,0.025
1.234,0.035
1.236,0.04
1.238,0.045
1.24,0.05
1.242,0.045
1.244,0.04
1.246,0.03
1.248,0.015
1.25,0.005
1.252,-0.005
1.254,-0.005
1.256,-0.005
1.258,0
1.26,0.005
1.262,0.015
1.264,0.02
1.266,0.015
1.268,0.01
1.27,-0.005
1.272,-0.02
1.274,-0.04
1.276,-0.06
1.278,-0.075
1.28,-0.085
1.282,-0.09
1.284,-0.09
1.286,-0.09
1.288,-0.085
1.29,-0.085
1.292,-0.08
1.294,-0.08
1.296,-0.08
1.298,-0.08
1.3,-0.075
1.302,-0.07
1.304,-0.06
1.306,-0.05
1.308,-0.045
1.31,-0.035
1.312,-0.035
1.314,-0.035
1.316,-0.04
1.318,-0.045
1.32,-0.055
1.322,-0.06
1.324,-0.06
1.326,-0.06
1.328,-0.05
1.33,-0.04
1.332,-0.03
1.334,-0.02
1.336,-0.015
1.338,-0.01
1.34,-0.015
1.342,-0.02
1.344,-0.025
1.346,-0.03
1.348,-0.035
1.35,-0.035
1.352,-0.03
1.354,-0.025
1.356,-0.025
1.358,-0.025
1.36,-0.03
1.362,-0.04
1.364,-0.055
1.366,-0.065
1.368,-0.075
1.37,-0.085
1.372,-0.085
1.374,-0.085
1.376,-0.08
1.378,-0.07
1.38,-0.065
1.382,-0.06
1.384,-0.06
1.386,-0.06
1.388,-0.065
1.39,-0.07
1.392,-0.07
1.394,-0.065
1.396,-0.055
1.398,-0.035
1.4,-0.015
1.402,0
1.404,0.02
1.406,0.025
1.408,0.03
1.41,0.02
1.412,0.01
1.414,-0.005
1.416,-0.015
1.418,-0.03
1.42,-0.035
1.422,-0.035
1.424,-0.03
1.426,-0.025
1.428,-0.015
1.43,-0.005
1.432,0
1.434,0.005
1.436,0.01
1.438,0.01
1.44,0.01
1.442,0
1.444,-0.005
1.446,-0.02
1.448,-0.03
1.45,-0.045
1.452,-0.06
1.454,-0.07
1.456,-0.075
1.458,-0.075
1.46,-0.07
1.462,-0.06
1.464,-0.045
1.466,-0.03
1.468,-0.015
1.47,-0.005
1.472,0
1.474,0.005
1.476,0
1.478,-0.01
1.48,-0.015
1.482,-0.02
1.484,-0.02
1.486,-0.02
1.488,-0.015
1.49,-0.005
1.492,0
1.494,0.005
1.496,0.005
1.498,0.005
1.5,0
1.502,-0.005
1.504,-0.015
1.506,-0.015
1.508,-0.02
1.51,-0.02
1.512,-0.015
1.514,-0.01
1.516,0
1.518,0.005
1.52,0.005
1.522,0.005
1.524,0.005
1.526,0
1.528,-0.01
1.53,-0.015
1.532,-0.02
1.534,-0.02
1.536,-0.015
1.538,-0.005
1.54,0
1.542,0.01
1.544,0.01
1.546,0.01
1.548,0.005
1.55,0
1.552,-0.01
1.554,-0.02
1.556,-0.025
1.558,-0.03
1.56,-0.025
1.562,-0.015
1.564,-0.005
1.566,0
1.568,0.005
1.57,0.005
1.572,0
1.574,-0.01
1.576,-0.02
1.578,-0.03
1.58,-0.035
1.582,-0.04
1.584,-0.04
1.586,-0.035
1.588,-0.025
1.59,-0.015
1.592,-0.005
1.594,0
1.596,0.005
1.598,0.005
1.6,0.005
1.602,0.005
1.604,0
1.606,0
1.608,0
1.61,-0.005
1.612,-0.005
1.614,-0.005
1.616,-0.005
1.618,-0.005
1.62,0
1.622,0.01
1.624,0.02
1.626,0.03
1.628,0.04
1.63,0.045
1.632,0.045
1.634,0.035
1.636,0.025
1.638,0.005
1.64,-0.01
1.642,-0.025
1.644,-0.03
1.646,-0.035
1.648,-0.03
1.65,-0.025
1.652,-0.015
1.654,-0.01
1.656,-0.01
1.658,-0.015
1.66,-0.025
1.662,-0.035
1.664,-0.045
1.666,-0.05
1.668,-0.05
1.67,-0.045
1.672,-0.035
1.674,-0.025
1.676,-0.015
1.678,-0.005
1.68,0.005
1.682,0.005
1.684,0.005
1.686,0
1.688,0
1.69,-0.005
1.692,-0.01
1.694,-0.01
1.696,-0.005
1.698,-0.005
1.7,0
1.702,0.005
1.704,0.01
1.706,0.015
1.708,0.02
1.71,0.025
1.712,0.025
1.714,0.025
1.716,0.02
1.718,0.02
1.72,0.015
1.722,0.01
1.724,0.005
1.726,0.005
1.728,0
1.73,0
1.732,-0.005
1.734,-0.01
1.736,-0.01
1.738,-0.015
1.74,-0.02
1.742,-0.02
1.744,-0.02
1.746,-0.015
1.748,-0.01
1.75,-0.005
1.752,0.005
1.754,0.01
1.756,0.015
1.758,0.02
1.76,0.02
1.762,0.025
1.764,0.025
1.766,0.025
1.768,0.03
1.77,0.035
1.772,0.04
1.774,0.045
1.776,0.045
1.778,0.04
1.78,0.035
1.782,0.03
1.784,0.02
1.786,0.005
1.788,-0.005
1.79,-0.015
1.792,-0.02
1.794,-0.025
1.796,-0.03
1.798,-0.03
1.8,-0.03
1.802,-0.025
1.804,-0.025
1.806,-0.025
1.808,-0.02
1.81,-0.02
1.812,-0.02
1.814,-0.025
1.816,-0.025
1.818,-0.03
1.82,-0.04
1.822,-0.045
1.824,-0.05
1.826,-0.055
1.828,-0.055
1.83,-0.055
1.832,-0.055
1.834,-0.05
1.836,-0.045
1.838,-0.04
1.84,-0.03
1.842,-0.02
1.844,0
1.846,0.035
1.848,0.08
1.85,0.14
1.852,0.215
1.854,0.3
1.856,0.385
1.858,0.46
1.86,0.52
1.862,0.56
1.864,0.565
1.866,0.54
1.868,0.495
1.87,0.425
1.872,0.345
1.874,0.26
1.876,0.185
1.878,0.125
1.88,0.08
1.882,0.05
1.884,0.035
1.886,0.025
1.888,0.025
1.89,0.02
1.892,0.015
1.894,0.01
1.896,0.005
1.898,-0.005
1.9,-0.01
1.902,-0.01
1.904,-0.01
1.906,-0.005
1.908,0
1.91,0.005
1.912,0.005
1.914,0.005
1.916,0.005
1.918,-0.005
1.92,-0.01
1.922,-0.02
1.924,-0.025
1.926,-0.03
1.928,-0.035
1.93,-0.04
1.932,-0.04
1.934,-0.035
1.936,-0.03
1.938,-0.025
1.94,-0.015
1.942,-0.005
1.944,0
1.946,0.01
1.948,0.01
1.95,0.01
1.952,0.005
1.954,-0.005
1.956,-0.015
1.958,-0.025
1.96,-0.04
1.962,-0.045
1.964,-0.045
1.966,-0.045
1.968,-0.04
1.97,-0.03
1.972,-0.02
1.974,-0.01
1.976,0
1.978,0.005
1.98,0.01
1.982,0.01
1.984,0.01
1.986,0.005
1.988,0.005
1.99,0.005
1.992,0.005
1.994,0.005
1.996,0.005
1.998,0.005
2,0.005
2.002,0
2.004,-0.005
2.006,-0.01
2.008,-0.015
2.01,-0.015
2.012,-0.015
2.014,-0.015
2.016,-0.01
2.018,-0.005
2.02,0
2.022,0.01
2.024,0.01
2.026,0.015
2.028,0.015
2.03,0.015
2.032,0.02
2.034,0.02
2.036,0.02
2.038,0.02
2.04,0.015
2.042,0.015
2.044,0.01
2.046,0.005
2.048,0
2.05,-0.005
2.052,-0.005
2.054,0
2.056,0.01
2.058,0.02
2.06,0.035
2.062,0.045
2.064,0.055
2.066,0.06
2.068,0.06
2.07,0.06
2.072,0.055
2.074,0.055
2.076,0.055
2.078,0.06
2.08,0.065
2.082,0.07
2.084,0.08
2.086,0.085
2.088,0.09
2.09,0.09
2.092,0.09
2.094,0.09
2.096,0.085
2.098,0.085
2.1,0.09
2.102,0.09
2.104,0.095
2.106,0.1
2.108,0.105
2.11,0.11
2.112,0.115
2.114,0.12
2.116,0.12
2.118,0.125
2.12,0.13
2.122,0.13
2.124,0.135
2.126,0.14
2.128,0.14
2.13,0.145
2.132,0.145
2.134,0.145
2.136,0.15
2.138,0.15
2.14,0.15
2.142,0.15
2.144,0.15
2.146,0.15
2.148,0.145
2.15,0.145
2.152,0.14
2.154,0.135
2.156,0.13
2.158,0.125
2.16,0.12
2.162,0.115
2.164,0.11
2.166,0.105
2.168,0.1
2.17,0.095
2.172,0.09
2.174,0.085
2.176,0.085
2.178,0.085
2.18,0.08
2.182,0.08
2.184,0.08
2.186,0.075
2.188,0.07
2.19,0.07
2.192,0.06
2.194,0.055
2.196,0.05
2.198,0.04
2.2,0.03
2.202,0.02
2.204,0.015
2.206,0.005
2.208,-0.005
2.21,-0.015
2.212,-0.025
2.214,-0.03
2.216,-0.03
2.218,-0.035
2.22,-0.035
2.222,-0.035
2.224,-0.035
2.226,-0.035
2.228,-0.035
2.23,-0.035
2.232,-0.035
2.234,-0.04
2.236,-0.04
2.238,-0.035
2.24,-0.035
2.242,-0.03
2.244,-0.025
2.246,-0.025
2.248,-0.025
2.25,-0.025
2.252,-0.035
2.254,-0.04
2.256,-0.05
2.258,-0.055
2.26,-0.055
2.262,-0.055
2.264,-0.05
2.266,-0.04
2.268,-0.03
2.27,-0.025
2.272,-0.02
2.274,-0.02
2.276,-0.03
2.278,-0.04
2.28,-0.055
2.282,-0.065
2.284,-0.075
2.286,-0.08
2.288,-0.08
2.29,-0.07
2.292,-0.06
2.294,-0.045
2.296,-0.035
2.298,-0.025
2.3,-0.02
2.302,-0.02
2.304,-0.025
2.306,-0.035
2.308,-0.045
2.31,-0.055
2.312,-0.065
2.314,-0.07
2.316,-0.07
2.318,-0.065
2.32,-0.06
2.322,-0.05
2.324,-0.045
2.326,-0.04
2.328,-0.04
2.33,-0.045
2.332,-0.05
2.334,-0.055
2.336,-0.06
2.338,-0.06
2.34,-0.06
2.342,-0.05
2.344,-0.04
2.346,-0.03
2.348,-0.025
2.35,-0.025
2.352,-0.03
2.354,-0.04
2.356,-0.055
2.358,-0.075
2.36,-0.09
2.362,-0.1
2.364,-0.105
2.366,-0.095
2.368,-0.08
2.37,-0.06
2.372,-0.04
2.374,-0.02
2.376,-0.015
2.378,-0.015
2.38,-0.03
2.382,-0.05
2.384,-0.07
2.386,-0.085
2.388,-0.095
2.39,-0.1
2.392,-0.09
2.394,-0.08
2.396,-0.065
2.398,-0.055
2.4,-0.05
2.402,-0.05
2.404,-0.055
2.406,-0.06
2.408,-0.07
2.41,-0.07
2.412,-0.07
2.414,-0.06
2.416,-0.05
2.418,-0.04
2.42,-0.03
2.422,-0.03
2.424,-0.035
2.426,-0.045
2.428,-0.055
2.43,-0.065
2.432,-0.075
2.434,-0.075
2.436,-0.07
2.438,-0.06
2.44,-0.05
2.442,-0.045
2.444,-0.035
2.446,-0.035
2.448,-0.04
2.45,-0.045
2.452,-0.05
2.454,-0.055
2.456,-0.055
2.458,-0.05
2.46,-0.045
2.462,-0.045
2.464,-0.04
2.466,-0.045
2.468,-0.055
2.47,-0.07
2.472,-0.09
2.474,-0.105
2.476,-0.12
2.478,-0.125
2.48,-0.125
2.482,-0.115
2.484,-0.1
2.486,-0.08
2.488,-0.065
2.49,-0.05
2.492,-0.04
2.494,-0.035
2.496,-0.04
2.498,-0.045
2.5,-0.055
2.502,-0.065
2.504,-0.075
2.506,-0.085
2.508,-0.09
2.51,-0.085
2.512,-0.085
2.514,-0.075
2.516,-0.07
2.518,-0.06
2.52,-0.055
2.522,-0.055
2.524,-0.055
2.526,-0.055
2.528,-0.06
2.53,-0.065
2.532,-0.07
2.534,-0.07
2.536,-0.07
2.538,-0.065
2.54,-0.06
2.542,-0.055
2.544,-0.05
2.546,-0.055
2.548,-0.055
2.55,-0.065
2.552,-0.075
2.554,-0.09
2.556,-0.1
2.558,-0.105
2.56,-0.11
2.562,-0.105
2.564,-0.1
2.566,-0.095
2.568,-0.085
2.57,-0.075
2.572,-0.07
2.574,-0.065
2.576,-0.06
2.578,-0.065
2.58,-0.065
2.582,-0.065
2.584,-0.07
2.586,-0.07
2.588,-0.07
2.59,-0.07
2.592,-0.07
2.594,-0.07
2.596,-0.07
2.598,-0.065
2.6,-0.065
2.602,-0.065
2.604,-0.065
2.606,-0.065
2.608,-0.065
2.61,-0.065
2.612,-0.065
2.614,-0.07
2.616,-0.07
2.618,-0.075
2.62,-0.075
2.622,-0.07
2.624,-0.065
2.626,-0.065
2.628,-0.06
2.63,-0.055
2.632,-0.055
2.634,-0.055
2.636,-0.06
2.638,-0.06
2.64,-0.065
2.642,-0.06
2.644,-0.06
2.646,-0.055
2.648,-0.05
2.65,-0.04
2.652,-0.035
2.654,-0.025
2.656,-0.025
2.658,-0.02
2.66,-0.02
2.662,-0.02
2.664,-0.02
2.666,-0.02
2.668,-0.015
2.67,-0.01
2.672,-0.005
2.674,0
2.676,0.005
2.678,0.005
2.68,0.005
2.682,0.005
2.684,0
2.686,0
2.688,-0.005
2.69,-0.01
2.692,-0.02
2.694,-0.025
2.696,-0.03
2.698,-0.04
2.7,-0.05
2.702,-0.055
2.704,-0.065
2.706,-0.075
2.708,-0.08
2.71,-0.085
2.712,-0.09
2.714,-0.09
2.716,-0.085
2.718,-0.085
2.72,-0.08
2.722,-0.075
2.724,-0.07
2.726,-0.07
2.728,-0.07
2.73,-0.065
2.732,-0.065
2.734,-0.06
2.736,-0.055
2.738,-0.055
2.74,-0.05
2.742,-0.05
2.744,-0.05
2.746,-0.055
2.748,-0.06
2.75,-0.065
2.752,-0.07
2.754,-0.07
2.756,-0.06
2.758,-0.04
2.76,-0.01
2.762,0.035
2.764,0.09
2.766,0.16
2.768,0.23
2.77,0.295
2.772,0.355
2.774,0.4
2.776,0.425
2.778,0.425
2.78,0.395
2.782,0.345
2.784,0.28
2.786,0.2
2.788,0.12
2.79,0.05
2.792,-0.01
2.794,-0.05
2.796,-0.065
2.798,-0.07
2.8,-0.06
2.802,-0.045
2.804,-0.03
2.806,-0.025
2.808,-0.025
2.81,-0.03
2.812,-0.04
2.814,-0.055
2.816,-0.065
2.818,-0.07
2.82,-0.065
2.822,-0.06
2.824,-0.05
2.826,-0.04
2.828,-0.035
2.83,-0.03
2.832,-0.03
2.834,-0.035
2.836,-0.04
2.838,-0.045
2.84,-0.045
2.842,-0.04
2.844,-0.035
2.846,-0.025
2.848,-0.02
2.85,-0.015
2.852,-0.015
2.854,-0.025
2.856,-0.035
2.858,-0.05
2.86,-0.065
2.862,-0.075
2.864,-0.085
2.866,-0.085
2.868,-0.08
2.87,-0.065
2.872,-0.05
2.874,-0.03
2.876,-0.015
2.878,0
2.88,0.01
2.882,0.015
2.884,0.01
2.886,0.005
2.888,0
2.89,-0.01
2.892,-0.015
2.894,-0.015
2.896,-0.015
2.898,-0.005
2.9,0.005
2.902,0.015
2.904,0.025
2.906,0.03
2.908,0.035
2.91,0.035
2.912,0.025
2.914,0.015
2.916,0.005
2.918,-0.005
2.92,-0.01
2.922,-0.015
2.924,-0.015
2.926,-0.01
2.928,-0.005
2.93,0
2.932,0.005
2.934,0.005
2.936,0.005
2.938,0
2.94,-0.005
2.942,-0.01
2.944,-0.015
2.946,-0.01
2.948,-0.005
2.95,0.005
2.952,0.015
2.954,0.03
2.956,0.04
2.958,0.05
2.96,0.055
2.962,0.055
2.964,0.055
2.966,0.05
2.968,0.045
2.97,0.04
2.972,0.04
2.974,0.04
2.976,0.045
2.978,0.055
2.98,0.065
2.982,0.075
2.984,0.09
2.986,0.1
2.988,0.11
2.99,0.115
2.992,0.115
2.994,0.115
2.996,0.105
2.998,0.1
3,0.09
3.002,0.08
3.004,0.075
3.006,0.075
3.008,0.08
3.01,0.09
3.012,0.095
3.014,0.105
3.016,0.11
3.018,0.115
3.02,0.12
3.022,0.12
3.024,0.12
3.026,0.12
3.028,0.125
3.03,0.135
3.032,0.14
3.034,0.15
3.036,0.16
3.038,0.165
3.04,0.17
3.042,0.17
3.044,0.17
3.046,0.17
3.048,0.17
3.05,0.17
3.052,0.17
3.054,0.17
3.056,0.17
3.058,0.165
3.06,0.16
3.062,0.155
3.064,0.15
3.066,0.15
3.068,0.15
3.07,0.155
3.072,0.165
3.074,0.175
3.076,0.185
3.078,0.19
3.08,0.19
3.082,0.185
3.084,0.17
3.086,0.15
3.088,0.13
3.09,0.11
3.092,0.095
3.094,0.085
3.096,0.08
3.098,0.075
3.1,0.075
3.102,0.075
3.104,0.07
3.106,0.065
3.108,0.055
3.11,0.045
3.112,0.03
3.114,0.015
3.116,0.005
3.118,0
3.12,-0.005
3.122,0
3.124,0.005
3.126,0.015
3.128,0.02
3.13,0.025
3.132,0.025
3.134,0.015
3.136,0.005
3.138,-0.01
3.14,-0.025
3.142,-0.04
3.144,-0.055
3.146,-0.06
3.148,-0.06
3.15,-0.055
3.152,-0.045
3.154,-0.03
3.156,-0.015
3.158,0
3.16,0.01
3.162,0.015
3.164,0.01
3.166,0.005
3.168,-0.005
3.17,-0.015
3.172,-0.02
3.174,-0.025
3.176,-0.025
3.178,-0.02
3.18,-0.015
3.182,-0.01
3.184,-0.01
3.186,-0.015
3.188,-0.02
3.19,-0.025
3.192,-0.035
3.194,-0.04
3.196,-0.045
3.198,-0.04
3.2,-0.035
3.202,-0.02
3.204,-0.01
3.206,0
3.208,0
3.21,-0.005
3.212,-0.015
3.214,-0.035
3.216,-0.05
3.218,-0.065
3.22,-0.075
3.222,-0.075
3.224,-0.065
3.226,-0.045
3.228,-0.02
3.23,0.005
3.232,0.025
3.234,0.04
3.236,0.04
3.238,0.03
3.24,0.01
3.242,-0.01
3.244,-0.03
3.246,-0.05
3.248,-0.06
3.25,-0.06
3.252,-0.06
3.254,-0.055
3.256,-0.05
3.258,-0.045
3.26,-0.04
3.262,-0.04
3.264,-0.04
3.266,-0.045
3.268,-0.04
3.27,-0.035
3.272,-0.03
3.274,-0.02
3.276,-0.015
3.278,-0.01
3.28,-0.01
3.282,-0.015
3.284,-0.02
3.286,-0.03
3.288,-0.04
3.29,-0.05
3.292,-0.05
3.294,-0.045
3.296,-0.04
3.298,-0.03
3.3,-0.015
3.302,-0.01
3.304,0
3.306,0
3.308,0
3.31,-0.005
3.312,-0.005
3.314,-0.005
3.316,-0.005
3.318,-0.005
3.32,0
3.322,0
3.324,0.005
3.326,0.005
3.328,0.005
3.33,0
3.332,-0.005
3.334,-0.005
3.336,-0.01
3.338,-0.015
3.34,-0.02
3.342,-0.03
3.344,-0.04
3.346,-0.05
3.348,-0.06
3.35,-0.07
3.352,-0.075
3.354,-0.08
3.356,-0.075
3.358,-0.07
3.36,-0.065
3.362,-0.055
3.364,-0.045
3.366,-0.04
3.368,-0.035
3.37,-0.035
3.372,-0.03
3.374,-0.03
3.376,-0.03
3.378,-0.025
3.38,-0.02
3.382,-0.01
3.384,-0.005
3.386,0.005
3.388,0.005
3.39,0
3.392,-0.005
3.394,-0.01
3.396,-0.02
3.398,-0.03
3.4,-0.035
3.402,-0.04
3.404,-0.035
3.406,-0.035
3.408,-0.035
3.41,-0.035
3.412,-0.035
3.414,-0.04
3.416,-0.045
3.418,-0.05
3.42,-0.055
3.422,-0.055
3.424,-0.05
3.426,-0.045
3.428,-0.035
3.43,-0.025
3.432,-0.02
3.434,-0.015
3.436,-0.015
3.438,-0.025
3.44,-0.035
3.442,-0.045
3.444,-0.06
3.446,-0.065
3.448,-0.07
3.45,-0.07
3.452,-0.07
3.454,-0.06
3.456,-0.055
3.458,-0.045
3.46,-0.04
3.462,-0.04
3.464,-0.04
3.466,-0.045
3.468,-0.045
3.47,-0.05
3.472,-0.05
3.474,-0.05
3.476,-0.05
3.478,-0.05
3.48,-0.055
3.482,-0.055
3.484,-0.065
3.486,-0.07
3.488,-0.07
3.49,-0.07
3.492,-0.065
3.494,-0.055
3.496,-0.04
3.498,-0.025
3.5,-0.015
3.502,-0.005
3.504,0
3.506,0
3.508,-0.005
3.51,-0.02
3.512,-0.03
3.514,-0.04
3.516,-0.05
3.518,-0.055
3.52,-0.055
3.522,-0.055
3.524,-0.05
3.526,-0.045
3.528,-0.04
3.53,-0.035
3.532,-0.03
3.534,-0.025
3.536,-0.015
3.538,-0.005
3.54,0
3.542,0.01
3.544,0.015
3.546,0.015
3.548,0.015
3.55,0.005
3.552,-0.005
3.554,-0.015
3.556,-0.025
3.558,-0.035
3.56,-0.04
3.562,-0.04
3.564,-0.035
3.566,-0.03
3.568,-0.02
3.57,-0.015
3.572,-0.01
3.574,-0.01
3.576,-0.015
3.578,-0.02
3.58,-0.025
3.582,-0.03
3.584,-0.035
3.586,-0.04
3.588,-0.04
3.59,-0.045
3.592,-0.045
3.594,-0.04
3.596,-0.04
3.598,-0.04
3.6,-0.04
3.602,-0.045
3.604,-0.045
3.606,-0.05
3.608,-0.05
3.61,-0.05
3.612,-0.055
3.614,-0.055
3.616,-0.055
3.618,-0.055
3.62,-0.05
3.622,-0.05
3.624,-0.05
3.626,-0.05
3.628,-0.055
3.63,-0.065
3.632,-0.075
3.634,-0.085
3.636,-0.095
3.638,-0.105
3.64,-0.105
3.642,-0.095
3.644,-0.07
3.646,-0.025
3.648,0.035
3.65,0.115
3.652,0.2
3.654,0.295
3.656,0.38
3.658,0.455
3.66,0.505
3.662,0.525
3.664,0.515
3.666,0.48
3.668,0.42
3.67,0.345
3.672,0.26
3.674,0.18
3.676,0.105
3.678,0.045
3.68,0.005
3.682,-0.025
3.684,-0.04
3.686,-0.04
3.688,-0.04
3.69,-0.035
3.692,-0.03
3.694,-0.025
3.696,-0.025
3.698,-0.025
3.7,-0.03
3.702,-0.035
3.704,-0.045
3.706,-0.055
3.708,-0.07
3.71,-0.08
3.712,-0.085
3.714,-0.09
3.716,-0.09
3.718,-0.09
3.72,-0.08
3.722,-0.075
3.724,-0.065
3.726,-0.06
3.728,-0.06
3.73,-0.06
3.732,-0.065
3.734,-0.07
3.736,-0.07
3.738,-0.075
3.74,-0.075
3.742,-0.07
3.744,-0.065
3.746,-0.065
3.748,-0.06
3.75,-0.06
3.752,-0.065
3.754,-0.075
3.756,-0.08
3.758,-0.085
3.76,-0.085
3.762,-0.085
3.764,-0.075
3.766,-0.06
3.768,-0.045
3.77,-0.035
3.772,-0.025
3.774,-0.02
3.776,-0.025
3.778,-0.035
3.78,-0.05
3.782,-0.065
3.784,-0.075
3.786,-0.08
3.788,-0.08
3.79,-0.075
3.792,-0.065
3.794,-0.05
3.796,-0.04
3.798,-0.03
3.8,-0.025
3.802,-0.025
3.804,-0.025
3.806,-0.025
3.808,-0.03
3.81,-0.025
3.812,-0.025
3.814,-0.02
3.816,-0.015
3.818,-0.01
3.82,-0.005
3.822,-0.005
3.824,-0.01
3.826,-0.015
3.828,-0.02
3.83,-0.025
3.832,-0.03
3.834,-0.03
3.836,-0.025
3.838,-0.02
3.84,-0.02
3.842,-0.015
3.844,-0.01
3.846,-0.01
3.848,-0.01
3.85,-0.005
3.852,-0.005
3.854,0.005
3.856,0.015
3.858,0.025
3.86,0.04
3.862,0.05
3.864,0.06
3.866,0.06
3.868,0.06
3.87,0.05
3.872,0.04
3.874,0.025
3.876,0.015
3.878,0.01
3.88,0.01
3.882,0.02
3.884,0.035
3.886,0.05
3.888,0.07
3.89,0.085
3.892,0.1
3.894,0.11
3.896,0.11
3.898,0.11
3.9,0.105
3.902,0.1
3.904,0.09
3.906,0.09
3.908,0.085
3.91,0.09
3.912,0.095
3.914,0.1
3.916,0.11
3.918,0.115
3.92,0.125
3.922,0.13
3.924,0.135
3.926,0.135
3.928,0.14
3.93,0.145
3.932,0.145
3.934,0.15
3.936,0.15
3.938,0.155
3.94,0.155
3.942,0.155
3.944,0.155
3.946,0.15
3.948,0.145
3.95,0.14
3.952,0.13
3.954,0.125
3.956,0.125
3.958,0.125
3.96,0.125
3.962,0.13
3.964,0.13
3.966,0.135
3.968,0.135
3.97,0.13
3.972,0.125
3.974,0.115
3.976,0.1
3.978,0.085
3.98,0.07
3.982,0.055
3.984,0.045
3.986,0.035
3.988,0.03
3.99,0.025
3.992,0.02
3.994,0.015
3.996,0.01
3.998,0.01
4,0.005
4.002,0
4.004,0
4.006,-0.005
4.008,-0.005
4.01,-0.01
4.012,-0.01
4.014,-0.015
4.016,-0.02
4.018,-0.03
4.02,-0.035
4.022,-0.045
4.024,-0.055
4.026,-0.06
4.028,-0.06
4.03,-0.06
4.032,-0.055
4.034,-0.045
4.036,-0.04
4.038,-0.03
4.04,-0.03
4.042,-0.03
4.044,-0.03
4.046,-0.035
4.048,-0.045
4.05,-0.05
4.052,-0.055
4.054,-0.055
4.056,-0.055
4.058,-0.05
4.06,-0.045
4.062,-0.04
4.064,-0.035
4.066,-0.03
4.068,-0.03
4.07,-0.03
4.072,-0.03
4.074,-0.03
4.076,-0.03
4.078,-0.03
4.08,-0.03
4.082,-0.025
4.084,-0.03
4.086,-0.03
4.088,-0.035
4.09,-0.04
4.092,-0.045
4.094,-0.045
4.096,-0.045
4.098,-0.04
4.1,-0.035
4.102,-0.03
4.104,-0.03
4.106,-0.035
4.108,-0.04
4.11,-0.05
4.112,-0.065
4.114,-0.07
4.116,-0.075
4.118,-0.075
4.12,-0.07
4.122,-0.055
4.124,-0.04
4.126,-0.02
4.128,-0.01
4.13,0
4.132,0
4.134,-0.005
4.136,-0.015
4.138,-0.02
4.14,-0.03
4.142,-0.03
4.144,-0.035
4.146,-0.035
4.148,-0.03
4.15,-0.035
4.152,-0.035
4.154,-0.04
4.156,-0.045
4.158,-0.05
4.16,-0.05
4.162,-0.05
4.164,-0.045
4.166,-0.035
4.168,-0.025
4.17,-0.015
4.172,-0.01
4.174,-0.005
4.176,-0.01
4.178,-0.02
4.18,-0.03
4.182,-0.04
4.184,-0.05
4.186,-0.06
4.188,-0.065
4.19,-0.07
4.192,-0.07
4.194,-0.07
4.196,-0.065
4.198,-0.06
4.2,-0.05
4.202,-0.04
4.204,-0.025
4.206,-0.01
4.208,0.005
4.21,0.01
4.212,0.01
4.214,0.005
4.216,-0.01
4.218,-0.03
4.22,-0.05
4.222,-0.065
4.224,-0.075
4.226,-0.08
4.228,-0.075
4.23,-0.06
4.232,-0.045
4.234,-0.025
4.236,-0.01
4.238,-0.005
4.24,-0.005
4.242,-0.01
4.244,-0.025
4.246,-0.04
4.248,-0.05
4.25,-0.06
4.252,-0.065
4.254,-0.06
4.256,-0.055
4.258,-0.045
4.26,-0.035
4.262,-0.025
4.264,-0.02
4.266,-0.02
4.268,-0.02
4.27,-0.025
4.272,-0.03
4.274,-0.035
4.276,-0.035
4.278,-0.035
4.28,-0.035
4.282,-0.03
4.284,-0.025
4.286,-0.025
4.288,-0.02
4.29,-0.02
4.292,-0.02
4.294,-0.025
4.296,-0.03
4.298,-0.03
4.3,-0.03
4.302,-0.03
4.304,-0.025
4.306,-0.02
4.308,-0.015
4.31,-0.015
4.312,-0.015
4.314,-0.025
4.316,-0.035
4.318,-0.05
4.32,-0.065
4.322,-0.08
4.324,-0.09
4.326,-0.09
4.328,-0.085
4.33,-0.075
4.332,-0.06
4.334,-0.045
4.336,-0.03
4.338,-0.025
4.34,-0.02
4.342,-0.025
4.344,-0.035
4.346,-0.05
4.348,-0.065
4.35,-0.07
4.352,-0.075
4.354,-0.07
4.356,-0.055
4.358,-0.04
4.36,-0.025
4.362,-0.015
4.364,-0.005
4.366,-0.005
4.368,-0.015
4.37,-0.02
4.372,-0.025
4.374,-0.03
4.376,-0.025
4.378,-0.015
4.38,0.005
4.382,0.02
4.384,0.035
4.386,0.045
4.388,0.045
4.39,0.035
4.392,0.02
4.394,0
4.396,-0.02
4.398,-0.03
4.4,-0.035
4.402,-0.035
4.404,-0.025
4.406,-0.01
4.408,0.005
4.41,0.015
4.412,0.025
4.414,0.03
4.416,0.025
4.418,0.02
4.42,0.01
4.422,0
4.424,-0.01
4.426,-0.025
4.428,-0.04
4.43,-0.055
4.432,-0.075
4.434,-0.09
4.436,-0.1
4.438,-0.11
4.44,-0.11
4.442,-0.1
4.444,-0.09
4.446,-0.075
4.448,-0.055
4.45,-0.04
4.452,-0.025
4.454,-0.02
4.456,-0.02
4.458,-0.025
4.46,-0.035
4.462,-0.045
4.464,-0.055
4.466,-0.065
4.468,-0.075
4.47,-0.08
4.472,-0.08
4.474,-0.08
4.476,-0.075
4.478,-0.06
4.48,-0.04
4.482,-0.01
4.484,0.03
4.486,0.085
4.488,0.145
4.49,0.21
4.492,0.275
4.494,0.335
4.496,0.39
4.498,0.43
4.5,0.45
4.502,0.45
4.504,0.425
4.506,0.375
4.508,0.305
4.51,0.22
4.512,0.135
4.514,0.05
4.516,-0.02
4.518,-0.07
4.52,-0.1
4.522,-0.1
4.524,-0.085
4.526,-0.06
4.528,-0.03
4.53,-0.005
4.532,0.01
4.534,0.01
4.536,0
4.538,-0.025
4.54,-0.05
4.542,-0.07
4.544,-0.085
4.546,-0.09
4.548,-0.085
4.55,-0.07
4.552,-0.055
4.554,-0.035
4.556,-0.025
4.558,-0.02
4.56,-0.025
4.562,-0.03
4.564,-0.035
4.566,-0.045
4.568,-0.045
4.57,-0.05
4.572,-0.045
4.574,-0.045
4.576,-0.04
4.578,-0.04
4.58,-0.04
4.582,-0.04
4.584,-0.04
4.586,-0.04
4.588,-0.035
4.59,-0.03
4.592,-0.025
4.594,-0.025
4.596,-0.025
4.598,-0.03
4.6,-0.04
4.602,-0.05
4.604,-0.06
4.606,-0.07
4.608,-0.075
4.61,-0.075
4.612,-0.065
4.614,-0.055
4.616,-0.04
4.618,-0.03
4.62,-0.025
4.622,-0.025
4.624,-0.03
4.626,-0.035
4.628,-0.045
4.63,-0.045
4.632,-0.045
4.634,-0.04
4.636,-0.025
4.638,-0.01
4.64,0
4.642,0.01
4.644,0.015
4.646,0.015
4.648,0.01
4.65,0.01
4.652,0.005
4.654,0.005
4.656,0.005
4.658,0.01
4.66,0.01
4.662,0.01
4.664,0.005
4.666,-0.005
4.668,-0.02
4.67,-0.035
4.672,-0.04
4.674,-0.045
4.676,-0.04
4.678,-0.03
4.68,-0.01
4.682,0.01
4.684,0.025
4.686,0.04
4.688,0.04
4.69,0.035
4.692,0.025
4.694,0.015
4.696,0.01
4.698,0.005
4.7,0.01
4.702,0.02
4.704,0.035
4.706,0.05
4.708,0.06
4.71,0.07
4.712,0.07
4.714,0.065
4.716,0.06
4.718,0.05
4.72,0.045
4.722,0.045
4.724,0.05
4.726,0.06
4.728,0.07
4.73,0.085
4.732,0.095
4.734,0.105
4.736,0.11
4.738,0.11
4.74,0.11
4.742,0.11
4.744,0.105
4.746,0.105
4.748,0.11
4.75,0.12
4.752,0.125
4.754,0.135
4.756,0.145
4.758,0.155
4.76,0.16
4.762,0.165
4.764,0.165
4.766,0.165
4.768,0.16
4.77,0.16
4.772,0.16
4.774,0.16
4.776,0.16
4.778,0.155
4.78,0.155
4.782,0.15
4.784,0.145
4.786,0.135
4.788,0.125
4.79,0.12
4.792,0.11
4.794,0.11
4.796,0.11
4.798,0.115
4.8,0.12
4.802,0.125
4.804,0.13
4.806,0.13
4.808,0.13
4.81,0.125
4.812,0.115
4.814,0.1
4.816,0.09
4.818,0.08
4.82,0.07
4.822,0.06
4.824,0.055
4.826,0.055
4.828,0.055
4.83,0.055
4.832,0.055
4.834,0.05
4.836,0.045
4.838,0.035
4.84,0.02
4.842,0.005
4.844,-0.015
4.846,-0.035
4.848,-0.045
4.85,-0.06
4.852,-0.065
4.854,-0.065
4.856,-0.06
4.858,-0.055
4.86,-0.05
4.862,-0.045
4.864,-0.04
4.866,-0.04
4.868,-0.045
4.87,-0.05
4.872,-0.055
4.874,-0.055
4.876,-0.06
4.878,-0.06
4.88,-0.06
4.882,-0.055
4.884,-0.055
4.886,-0.05
4.888,-0.045
4.89,-0.04
4.892,-0.04
4.894,-0.035
4.896,-0.03
4.898,-0.03
4.9,-0.03
4.902,-0.035
4.904,-0.04
4.906,-0.05
4.908,-0.06
4.91,-0.07
4.912,-0.07
4.914,-0.07
4.916,-0.055
4.918,-0.04
4.92,-0.02
4.922,0.005
4.924,0.02
4.926,0.035
4.928,0.035
4.93,0.03
4.932,0.015
4.934,-0.005
4.936,-0.025
4.938,-0.045
4.94,-0.06
4.942,-0.065
4.944,-0.065
4.946,-0.06
4.948,-0.05
4.95,-0.04
4.952,-0.03
4.954,-0.025
4.956,-0.02
4.958,-0.025
4.96,-0.035
4.962,-0.045
4.964,-0.06
4.966,-0.065
4.968,-0.07
4.97,-0.065
4.972,-0.055
4.974,-0.04
4.976,-0.025
4.978,-0.005
4.98,0.01
4.982,0.015
4.984,0.015
4.986,0.01
4.988,-0.005
4.99,-0.02
4.992,-0.035
4.994,-0.05
4.996,-0.055
4.998,-0.06
5,-0.06
5.002,-0.055
5.004,-0.05
5.006,-0.045
5.008,-0.04
5.01,-0.035
5.012,-0.03
5.014,-0.025
5.016,-0.02
5.018,-0.01
5.02,-0.005
5.022,0
5.024,0
5.026,-0.005
5.028,-0.01
5.03,-0.02
5.032,-0.03
5.034,-0.04
5.036,-0.05
5.038,-0.05
5.04,-0.05
5.042,-0.045
5.044,-0.035
5.046,-0.025
5.048,-0.015
5.05,-0.005
5.052,-0.005
5.054,-0.005
5.056,-0.01
5.058,-0.015
5.06,-0.02
5.062,-0.03
5.064,-0.035
5.066,-0.04
5.068,-0.04
5.07,-0.04
5.072,-0.04
5.074,-0.045
5.076,-0.045
5.078,-0.05
5.08,-0.055
5.082,-0.06
5.084,-0.06
5.086,-0.065
5.088,-0.06
5.09,-0.055
5.092,-0.045
5.094,-0.035
5.096,-0.02
5.098,-0.005
5.1,0.01
5.102,0.02
5.104,0.03
5.106,0.03
5.108,0.03
5.11,0.03
5.112,0.025
5.114,0.025
5.116,0.025
5.118,0.03
5.12,0.04
5.122,0.045
5.124,0.05
5.126,0.05
5.128,0.04
5.13,0.03
5.132,0.01
5.134,-0.01
5.136,-0.03
5.138,-0.05
5.14,-0.06
5.142,-0.065
5.144,-0.065
5.146,-0.06
5.148,-0.05
5.15,-0.04
5.152,-0.035
5.154,-0.03
5.156,-0.035
5.158,-0.035
5.16,-0.04
5.162,-0.045
5.164,-0.05
5.166,-0.05
5.168,-0.045
5.17,-0.04
5.172,-0.03
5.174,-0.025
5.176,-0.02
5.178,-0.02
5.18,-0.02
5.182,-0.02
5.184,-0.025
5.186,-0.03
5.188,-0.04
5.19,-0.045
5.192,-0.055
5.194,-0.065
5.196,-0.075
5.198,-0.08
5.2,-0.08
5.202,-0.07
5.204,-0.045
5.206,-0.005
5.208,0.05
5.21,0.12
5.212,0.2
5.214,0.28
5.216,0.355
5.218,0.415
5.22,0.45
5.222,0.46
5.224,0.44
5.226,0.395
5.228,0.335
5.23,0.26
5.232,0.18
5.234,0.105
5.236,0.045
5.238,0
5.24,-0.03
5.242,-0.045
5.244,-0.045
5.246,-0.04
5.248,-0.03
5.25,-0.015
5.252,-0.01
5.254,-0.005
5.256,-0.005
5.258,-0.005
5.26,-0.015
5.262,-0.025
5.264,-0.035
5.266,-0.045
5.268,-0.05
5.27,-0.055
5.272,-0.055
5.274,-0.05
5.276,-0.05
5.278,-0.045
5.28,-0.04
5.282,-0.04
5.284,-0.04
5.286,-0.04
5.288,-0.045
5.29,-0.045
5.292,-0.05
5.294,-0.05
5.296,-0.045
5.298,-0.04
5.3,-0.03
5.302,-0.02
5.304,-0.005
5.306,0.005
5.308,0.015
5.31,0.025
5.312,0.025
5.314,0.025
5.316,0.02
5.318,0.015
5.32,0.005
5.322,-0.005
5.324,-0.015
5.326,-0.025
5.328,-0.03
5.33,-0.03
5.332,-0.035
5.334,-0.03
5.336,-0.03
5.338,-0.03
5.34,-0.03
5.342,-0.035
5.344,-0.035
5.346,-0.04
5.348,-0.045
5.35,-0.05
5.352,-0.05
5.354,-0.05
5.356,-0.045
5.358,-0.035
5.36,-0.03
5.362,-0.02
5.364,-0.01
5.366,-0.005
5.368,0
5.37,0
5.372,-0.005
5.374,-0.01
5.376,-0.015
5.378,-0.025
5.38,-0.03
5.382,-0.03
5.384,-0.03
5.386,-0.025
5.388,-0.02
5.39,-0.015
5.392,-0.005
5.394,0
5.396,0.005
5.398,0.005
5.4,0
5.402,0
5.404,-0.005
5.406,-0.01
5.408,-0.01
5.41,-0.01
5.412,-0.01
5.414,0
5.416,0.015
5.418,0.03
5.42,0.045
5.422,0.06
5.424,0.075
5.426,0.09
5.428,0.095
5.43,0.1
5.432,0.1
5.434,0.09
5.436,0.085
5.438,0.075
5.44,0.065
5.442,0.06
5.444,0.055
5.446,0.055
5.448,0.06
5.45,0.065
5.452,0.07
5.454,0.08
5.456,0.085
5.458,0.09
5.46,0.09
5.462,0.085
5.464,0.085
5.466,0.08
5.468,0.075
5.47,0.075
5.472,0.075
5.474,0.075
5.476,0.08
5.478,0.085
5.48,0.09
5.482,0.105
5.484,0.115
5.486,0.13
5.488,0.145
5.49,0.16
5.492,0.175
5.494,0.185
5.496,0.19
5.498,0.19
5.5,0.18
5.502,0.17
5.504,0.155
5.506,0.14
5.508,0.125
5.51,0.11
5.512,0.105
5.514,0.105
5.516,0.105
5.518,0.11
5.52,0.115
5.522,0.115
5.524,0.11
5.526,0.1
5.528,0.085
5.53,0.065
5.532,0.05
5.534,0.035
5.536,0.025
5.538,0.02
5.54,0.02
5.542,0.025
5.544,0.03
5.546,0.035
5.548,0.035
5.55,0.03
5.552,0.02
5.554,0.005
5.556,-0.01
5.558,-0.025
5.56,-0.04
5.562,-0.05
5.564,-0.06
5.566,-0.06
5.568,-0.06
5.57,-0.06
5.572,-0.055
5.574,-0.055
5.576,-0.05
5.578,-0.045
5.58,-0.045
5.582,-0.04
5.584,-0.04
5.586,-0.04
5.588,-0.04
5.59,-0.045
5.592,-0.05
5.594,-0.055
5.596,-0.065
5.598,-0.07
5.6,-0.075
5.602,-0.08
5.604,-0.08
5.606,-0.08
5.608,-0.075
5.61,-0.07
5.612,-0.07
5.614,-0.065
5.616,-0.06
5.618,-0.06
5.62,-0.06
5.622,-0.065
5.624,-0.065
5.626,-0.065
5.628,-0.06
5.63,-0.055
5.632,-0.05
5.634,-0.045
5.636,-0.035
5.638,-0.03
5.64,-0.03
5.642,-0.03
5.644,-0.035
5.646,-0.04
5.648,-0.045
5.65,-0.05
5.652,-0.05
5.654,-0.05
5.656,-0.05
5.658,-0.045
5.66,-0.045
5.662,-0.04
5.664,-0.04
5.666,-0.04
5.668,-0.04
5.67,-0.04
5.672,-0.04
5.674,-0.04
5.676,-0.04
5.678,-0.04
5.68,-0.04
5.682,-0.04
5.684,-0.045
5.686,-0.055
5.688,-0.06
5.69,-0.07
5.692,-0.075
5.694,-0.075
5.696,-0.075
5.698,-0.07
5.7,-0.065
5.702,-0.055
5.704,-0.05
5.706,-0.05
5.708,-0.045
5.71,-0.05
5.712,-0.055
5.714,-0.06
5.716,-0.065
5.718,-0.07
5.72,-0.07
5.722,-0.065
5.724,-0.06
5.726,-0.055
5.728,-0.05
5.73,-0.04
5.732,-0.04
5.734,-0.035
5.736,-0.035
5.738,-0.035
5.74,-0.04
5.742,-0.04
5.744,-0.04
5.746,-0.04
5.748,-0.04
5.75,-0.035
5.752,-0.03
5.754,-0.03
5.756,-0.03
5.758,-0.035
5.76,-0.04
5.762,-0.05
5.764,-0.065
5.766,-0.075
5.768,-0.085
5.77,-0.09
5.772,-0.09
5.774,-0.085
5.776,-0.08
5.778,-0.07
5.78,-0.065
5.782,-0.06
5.784,-0.055
5.786,-0.06
5.788,-0.065
5.79,-0.075
5.792,-0.085
5.794,-0.095
5.796,-0.1
5.798,-0.1
5.8,-0.095
5.802,-0.08
5.804,-0.065
5.806,-0.05
5.808,-0.035
5.81,-0.02
5.812,-0.015
5.814,-0.015
5.816,-0.015
5.818,-0.02
5.82,-0.03
5.822,-0.035
5.824,-0.035
5.826,-0.035
5.828,-0.03
5.83,-0.025
5.832,-0.015
5.834,-0.005
5.836,0
5.838,0.005
5.84,0.01
5.842,0.01
5.844,0.01
5.846,0.015
5.848,0.015
5.85,0.02
5.852,0.025
5.854,0.025
5.856,0.025
5.858,0.025
5.86,0.02
5.862,0.01
5.864,0
5.866,-0.015
5.868,-0.025
5.87,-0.035
5.872,-0.045
5.874,-0.05
5.876,-0.055
5.878,-0.06
5.88,-0.065
5.882,-0.07
5.884,-0.08
5.886,-0.08
5.888,-0.085
5.89,-0.08
5.892,-0.07
5.894,-0.06
5.896,-0.045
5.898,-0.03
5.9,-0.025
5.902,-0.02
5.904,-0.025
5.906,-0.035
5.908,-0.05
5.91,-0.065
5.912,-0.075
5.914,-0.08
5.916,-0.085
5.918,-0.08
5.92,-0.075
5.922,-0.065
5.924,-0.055
5.926,-0.05
5.928,-0.045
5.93,-0.035
5.932,-0.015
5.934,0.015
5.936,0.06
5.938,0.115
5.94,0.19
5.942,0.265
5.944,0.345
5.946,0.41
5.948,0.46
5.95,0.485
5.952,0.485
5.954,0.46
5.956,0.415
5.958,0.35
5.96,0.28
5.962,0.21
5.964,0.15
5.966,0.1
5.968,0.06
5.97,0.035
5.972,0.02
5.974,0.01
5.976,0
5.978,-0.005
5.98,-0.02
5.982,-0.035
5.984,-0.055
5.986,-0.075
5.988,-0.09
5.99,-0.1
5.992,-0.105
5.994,-0.105
5.996,-0.095
5.998,-0.08
6,-0.065
6.002,-0.055
6.004,-0.045
6.006,-0.04
6.008,-0.04
6.01,-0.045
6.012,-0.06
6.014,-0.07
6.016,-0.08
6.018,-0.085
6.02,-0.09
6.022,-0.085
6.024,-0.08
6.026,-0.07
6.028,-0.055
6.03,-0.045
6.032,-0.035
6.034,-0.025
6.036,-0.02
6.038,-0.02
6.04,-0.02
6.042,-0.025
6.044,-0.03
6.046,-0.04
6.048,-0.05
6.05,-0.055
6.052,-0.065
6.054,-0.075
6.056,-0.075
6.058,-0.08
6.06,-0.08
6.062,-0.08
6.064,-0.08
6.066,-0.08
6.068,-0.085
6.07,-0.085
6.072,-0.09
6.074,-0.09
6.076,-0.095
6.078,-0.095
6.08,-0.095
6.082,-0.09
6.084,-0.08
6.086,-0.075
6.088,-0.07
6.09,-0.065
6.092,-0.06
6.094,-0.06
6.096,-0.06
6.098,-0.06
6.1,-0.06
6.102,-0.06
6.104,-0.055
6.106,-0.055
6.108,-0.055
6.11,-0.05
6.112,-0.05
6.114,-0.05
6.116,-0.055
6.118,-0.055
6.12,-0.055
6.122,-0.055
6.124,-0.05
6.126,-0.045
6.128,-0.035
6.13,-0.025
6.132,-0.015
6.134,0
6.136,0.01
6.138,0.015
6.14,0.02
6.142,0.02
6.144,0.02
6.146,0.015
6.148,0.005
6.15,0
6.152,-0.005
6.154,-0.015
6.156,-0.02
6.158,-0.025
6.16,-0.03
6.162,-0.03
6.164,-0.03
6.166,-0.025
6.168,-0.015
6.17,-0.01
6.172,0
6.174,0.01
6.176,0.02
6.178,0.025
6.18,0.035
6.182,0.04
6.184,0.04
6.186,0.045
6.188,0.045
6.19,0.05
6.192,0.05
6.194,0.05
6.196,0.05
6.198,0.055
6.2,0.06
6.202,0.07
6.204,0.08
6.206,0.09
6.208,0.105
6.21,0.115
6.212,0.125
6.214,0.135
6.216,0.135
6.218,0.135
6.22,0.13
6.222,0.12
6.224,0.115
6.226,0.11
6.228,0.105
6.23,0.105
6.232,0.105
6.234,0.105
6.236,0.105
6.238,0.105
6.24,0.105
6.242,0.1
6.244,0.095
6.246,0.095
6.248,0.09
6.25,0.09
6.252,0.09
6.254,0.085
6.256,0.08
6.258,0.075
6.26,0.06
6.262,0.045
6.264,0.03
6.266,0.015
6.268,0
6.27,-0.005
6.272,-0.005
6.274,0
6.276,0.005
6.278,0.015
6.28,0.015
6.282,0.015
6.284,0.005
6.286,-0.005
6.288,-0.015
6.29,-0.03
6.292,-0.035
6.294,-0.035
6.296,-0.03
6.298,-0.025
6.3,-0.02
6.302,-0.02
6.304,-0.03
6.306,-0.04
6.308,-0.06
6.31,-0.08
6.312,-0.095
6.314,-0.105
6.316,-0.105
6.318,-0.095
6.32,-0.08
6.322,-0.06
6.324,-0.035
6.326,-0.025
6.328,-0.015
6.33,-0.02
6.332,-0.03
6.334,-0.05
6.336,-0.06
6.338,-0.07
6.34,-0.075
6.342,-0.07
6.344,-0.055
6.346,-0.035
6.348,-0.015
6.35,0.005
6.352,0.015
6.354,0.02
6.356,0.015
6.358,0.005
6.36,-0.01
6.362,-0.025
6.364,-0.045
6.366,-0.055
6.368,-0.07
6.37,-0.075
6.372,-0.08
6.374,-0.08
6.376,-0.075
6.378,-0.075
6.38,-0.07
6.382,-0.065
6.384,-0.065
6.386,-0.06
6.388,-0.06
6.39,-0.06
6.392,-0.06
6.394,-0.06
6.396,-0.055
6.398,-0.055
6.4,-0.05
6.402,-0.045
6.404,-0.035
6.406,-0.03
6.408,-0.025
6.41,-0.02
6.412,-0.015
6.414,-0.015
6.416,-0.02
6.418,-0.02
6.42,-0.025
6.422,-0.03
6.424,-0.035
6.426,-0.04
6.428,-0.04
6.43,-0.04
6.432,-0.035
6.434,-0.03
6.436,-0.03
6.438,-0.03
6.44,-0.03
6.442,-0.03
6.444,-0.035
6.446,-0.04
6.448,-0.045
6.45,-0.045
6.452,-0.045
6.454,-0.04
6.456,-0.035
6.458,-0.03
6.46,-0.025
6.462,-0.02
6.464,-0.015
6.466,-0.01
6.468,-0.01
6.47,-0.01
6.472,-0.01
6.474,-0.01
6.476,-0.015
6.478,-0.025
6.48,-0.04
6.482,-0.055
6.484,-0.07
6.486,-0.08
6.488,-0.09
6.49,-0.09
6.492,-0.085
6.494,-0.07
6.496,-0.045
6.498,-0.02
6.5,0.01
6.502,0.03
6.504,0.045
6.506,0.045
6.508,0.04
6.51,0.02
6.512,-0.005
6.514,-0.03
6.516,-0.055
6.518,-0.07
6.52,-0.075
6.522,-0.07
6.524,-0.06
6.526,-0.045
6.528,-0.03
6.53,-0.02
6.532,-0.01
6.534,-0.01
6.536,-0.015
6.538,-0.02
6.54,-0.03
6.542,-0.035
6.544,-0.04
6.546,-0.04
6.548,-0.04
6.55,-0.04
6.552,-0.035
6.554,-0.035
6.556,-0.03
6.558,-0.03
6.56,-0.03
6.562,-0.03
6.564,-0.025
6.566,-0.025
6.568,-0.02
6.57,-0.02
6.572,-0.02
6.574,-0.025
6.576,-0.025
6.578,-0.025
6.58,-0.025
6.582,-0.02
6.584,-0.01
6.586,0.005
6.588,0.025
6.59,0.04
6.592,0.055
6.594,0.065
6.596,0.065
6.598,0.06
6.6,0.055
6.602,0.04
6.604,0.03
6.606,0.02
6.608,0.015
6.61,0.015
6.612,0.02
6.614,0.025
6.616,0.025
6.618,0.025
6.62,0.02
6.622,0.01
6.624,0
6.626,-0.015
6.628,-0.025
6.63,-0.03
6.632,-0.03
6.634,-0.025
6.636,-0.015
6.638,-0.005
6.64,0
6.642,0.005
6.644,0
6.646,-0.005
6.648,-0.015
6.65,-0.025
6.652,-0.035
6.654,-0.045
6.656,-0.05
6.658,-0.05
6.66,-0.05
6.662,-0.045
6.664,-0.04
6.666,-0.04
6.668,-0.035
6.67,-0.035
6.672,-0.04
6.674,-0.045
6.676,-0.05
6.678,-0.055
6.68,-0.06
6.682,-0.06
6.684,-0.055
6.686,-0.04
6.688,-0.015
6.69,0.025
6.692,0.08
6.694,0.145
6.696,0.225
6.698,0.305
6.7,0.39
6.702,0.465
6.704,0.52
6.706,0.555
6.708,0.56
6.71,0.54
6.712,0.49
6.714,0.42
6.716,0.335
6.718,0.25
6.72,0.17
6.722,0.105
6.724,0.06
6.726,0.035
6.728,0.025
6.73,0.03
6.732,0.035
6.734,0.04
6.736,0.04
6.738,0.035
6.74,0.02
6.742,-0.005
6.744,-0.025
6.746,-0.04
6.748,-0.05
6.75,-0.05
6.752,-0.04
6.754,-0.025
6.756,-0.01
6.758,0
6.76,0
6.762,-0.005
6.764,-0.015
6.766,-0.035
6.768,-0.05
6.77,-0.065
6.772,-0.07
6.774,-0.07
6.776,-0.065
6.778,-0.055
6.78,-0.045
6.782,-0.035
6.784,-0.03
6.786,-0.025
6.788,-0.025
6.79,-0.03
6.792,-0.03
6.794,-0.025
6.796,-0.02
6.798,-0.01
6.8,-0.005
6.802,0
6.804,0
6.806,-0.005
6.808,-0.01
6.81,-0.02
6.812,-0.03
6.814,-0.035
6.816,-0.035
6.818,-0.03
6.82,-0.02
6.822,-0.01
6.824,0
6.826,0.01
6.828,0.01
6.83,0.005
6.832,-0.005
6.834,-0.02
6.836,-0.03
6.838,-0.035
6.84,-0.04
6.842,-0.035
6.844,-0.025
6.846,-0.01
6.848,0
6.85,0.01
6.852,0.01
6.854,0.01
6.856,0.005
6.858,-0.005
6.86,-0.02
6.862,-0.03
6.864,-0.035
6.866,-0.04
6.868,-0.04
6.87,-0.04
6.872,-0.03
6.874,-0.025
6.876,-0.015
6.878,0
6.88,0.01
6.882,0.025
6.884,0.035
6.886,0.045
6.888,0.055
6.89,0.06
6.892,0.06
6.894,0.06
6.896,0.05
6.898,0.04
6.9,0.03
6.902,0.025
6.904,0.015
6.906,0.015
6.908,0.02
6.91,0.03
6.912,0.04
6.914,0.05
6.916,0.065
6.918,0.07
6.92,0.075
6.922,0.08
6.924,0.075
6.926,0.075
6.928,0.07
6.93,0.07
6.932,0.075
6.934,0.085
6.936,0.095
6.938,0.105
6.94,0.12
6.942,0.13
6.944,0.135
6.946,0.135
6.948,0.13
6.95,0.115
6.952,0.1
6.954,0.085
6.956,0.07
6.958,0.06
6.96,0.06
6.962,0.065
6.964,0.075
6.966,0.095
6.968,0.115
6.97,0.135
6.972,0.155
6.974,0.165
6.976,0.175
6.978,0.175
6.98,0.175
6.982,0.17
6.984,0.16
6.986,0.155
6.988,0.15
6.99,0.145
6.992,0.145
6.994,0.145
6.996,0.145
6.998,0.145
7,0.14
7.002,0.14
7.004,0.135
7.006,0.13
7.008,0.12
7.01,0.105
7.012,0.09
7.014,0.075
7.016,0.06
7.018,0.045
7.02,0.04
7.022,0.035
7.024,0.035
7.026,0.04
7.028,0.045
7.03,0.05
7.032,0.05
7.034,0.045
7.036,0.04
7.038,0.03
7.04,0.025
7.042,0.015
7.044,0.01
7.046,0.005
7.048,0.005
7.05,0.005
7.052,0.005
7.054,0.005
7.056,0
7.058,0
7.06,-0.005
7.062,-0.005
7.064,-0.005
7.066,0
7.068,0
7.07,0.005
7.072,0.005
7.074,0.005
7.076,0
7.078,-0.005
7.08,-0.01
7.082,-0.02
7.084,-0.03
7.086,-0.035
7.088,-0.04
7.09,-0.045
7.092,-0.045
7.094,-0.05
7.096,-0.05
7.098,-0.055
7.1,-0.055
7.102,-0.055
7.104,-0.055
7.106,-0.05
7.108,-0.045
7.11,-0.035
7.112,-0.03
7.114,-0.025
7.116,-0.02
7.118,-0.02
7.12,-0.02
7.122,-0.02
7.124,-0.015
7.126,-0.015
7.128,-0.01
7.13,-0.005
7.132,0
7.134,0.005
7.136,0.005
7.138,0
7.14,-0.005
7.142,-0.01
7.144,-0.015
7.146,-0.02
7.148,-0.015
7.15,-0.01
7.152,0
7.154,0.005
7.156,0.01
7.158,0.01
7.16,0.005
7.162,-0.005
7.164,-0.02
7.166,-0.035
7.168,-0.05
7.17,-0.06
7.172,-0.06
7.174,-0.055
7.176,-0.05
7.178,-0.035
7.18,-0.025
7.182,-0.015
7.184,-0.015
7.186,-0.015
7.188,-0.02
7.19,-0.03
7.192,-0.035
7.194,-0.04
7.196,-0.04
7.198,-0.035
7.2,-0.03
7.202,-0.025
7.204,-0.02
7.206,-0.015
7.208,-0.015
7.21,-0.02
7.212,-0.025
7.214,-0.035
7.216,-0.04
7.218,-0.04
7.22,-0.04
7.222,-0.04
7.224,-0.03
7.226,-0.025
7.228,-0.02
7.23,-0.015
7.232,-0.015
7.234,-0.02
7.236,-0.025
7.238,-0.03
7.24,-0.04
7.242,-0.045
7.244,-0.045
7.246,-0.05
7.248,-0.05
7.25,-0.045
7.252,-0.045
7.254,-0.045
7.256,-0.05
7.258,-0.05
7.26,-0.055
7.262,-0.06
7.264,-0.065
7.266,-0.065
7.268,-0.06
7.27,-0.06
7.272,-0.055
7.274,-0.045
7.276,-0.04
7.278,-0.035
7.28,-0.035
7.282,-0.035
7.284,-0.04
7.286,-0.045
7.288,-0.05
7.29,-0.055
7.292,-0.055
7.294,-0.055
7.296,-0.05
7.298,-0.045
7.3,-0.035
7.302,-0.03
7.304,-0.03
7.306,-0.03
7.308,-0.035
7.31,-0.045
7.312,-0.055
7.314,-0.07
7.316,-0.075
7.318,-0.08
7.32,-0.075
7.322,-0.065
7.324,-0.055
7.326,-0.045
7.328,-0.035
7.33,-0.03
7.332,-0.035
7.334,-0.04
7.336,-0.055
7.338,-0.065
7.34,-0.075
7.342,-0.085
7.344,-0.085
7.346,-0.085
7.348,-0.075
7.35,-0.06
7.352,-0.045
7.354,-0.03
7.356,-0.02
7.358,-0.01
7.36,-0.005
7.362,-0.01
7.364,-0.02
7.366,-0.03
7.368,-0.045
7.37,-0.065
7.372,-0.08
7.374,-0.09
7.376,-0.1
7.378,-0.1
7.38,-0.095
7.382,-0.08
7.384,-0.065
7.386,-0.05
7.388,-0.035
7.39,-0.03
7.392,-0.03
7.394,-0.035
7.396,-0.045
7.398,-0.06
7.4,-0.07
7.402,-0.085
7.404,-0.09
7.406,-0.09
7.408,-0.09
7.41,-0.08
7.412,-0.07
7.414,-0.065
7.416,-0.055
7.418,-0.055
7.42,-0.055
7.422,-0.05
7.424,-0.05
7.426,-0.05
7.428,-0.045
7.43,-0.04
7.432,-0.035
7.434,-0.035
7.436,-0.035
7.438,-0.04
7.44,-0.045
7.442,-0.055
7.444,-0.065
7.446,-0.07
7.448,-0.07
7.45,-0.065
7.452,-0.055
7.454,-0.04
7.456,-0.025
7.458,-0.015
7.46,-0.01
7.462,-0.01
7.464,-0.02
7.466,-0.03
7.468,-0.04
7.47,-0.05
7.472,-0.055
7.474,-0.05
7.476,-0.045
7.478,-0.035
7.48,-0.025
7.482,-0.015
7.484,-0.005
7.486,-0.005
7.488,-0.005
7.49,-0.005
7.492,-0.01
7.494,-0.01
7.496,-0.005
7.498,0.005
7.5,0.015
7.502,0.03
7.504,0.045
7.506,0.055
7.508,0.055
7.51,0.055
7.512,0.045
7.514,0.025
7.516,0.005
7.518,-0.02
7.52,-0.04
7.522,-0.06
7.524,-0.075
7.526,-0.085
7.528,-0.085
7.53,-0.08
7.532,-0.075
7.534,-0.065
7.536,-0.06
7.538,-0.05
7.54,-0.045
7.542,-0.045
7.544,-0.045
7.546,-0.05
7.548,-0.05
7.55,-0.055
7.552,-0.055
7.554,-0.055
7.556,-0.055
7.558,-0.055
7.56,-0.05
7.562,-0.05
7.564,-0.05
7.566,-0.05
7.568,-0.055
7.57,-0.055
7.572,-0.065
7.574,-0.07
7.576,-0.075
7.578,-0.08
7.58,-0.08
7.582,-0.07
7.584,-0.055
7.586,-0.025
7.588,0.02
7.59,0.075
7.592,0.14
7.594,0.215
7.596,0.29
7.598,0.36
7.6,0.42
7.602,0.46
7.604,0.48
7.606,0.475
7.608,0.445
7.61,0.4
7.612,0.335
7.614,0.26
7.616,0.185
7.618,0.115
7.62,0.055
7.622,0.01
7.624,-0.02
7.626,-0.04
7.628,-0.045
7.63,-0.045
7.632,-0.04
7.634,-0.03
7.636,-0.025
7.638,-0.02
7.64,-0.02
7.642,-0.02
7.644,-0.03
7.646,-0.035
7.648,-0.04
7.65,-0.045
7.652,-0.05
7.654,-0.05
7.656,-0.045
7.658,-0.04
7.66,-0.03
7.662,-0.025
7.664,-0.015
7.666,-0.015
7.668,-0.015
7.67,-0.025
7.672,-0.03
7.674,-0.045
7.676,-0.055
7.678,-0.065
7.68,-0.065
7.682,-0.065
7.684,-0.06
7.686,-0.05
7.688,-0.04
7.69,-0.03
7.692,-0.02
7.694,-0.015
7.696,-0.015
7.698,-0.02
7.7,-0.03
7.702,-0.035
7.704,-0.045
7.706,-0.05
7.708,-0.055
7.71,-0.06
7.712,-0.06
7.714,-0.06
7.716,-0.055
7.718,-0.055
7.72,-0.05
7.722,-0.045
7.724,-0.04
7.726,-0.03
7.728,-0.02
7.73,-0.015
7.732,-0.005
7.734,-0.005
7.736,-0.005
7.738,-0.01
7.74,-0.015
7.742,-0.025
7.744,-0.035
7.746,-0.04
7.748,-0.045
7.75,-0.04
7.752,-0.035
7.754,-0.02
7.756,-0.01
7.758,0.005
7.76,0.01
7.762,0.015
7.764,0.015
7.766,0.01
7.768,0.005
7.77,0
7.772,-0.005
7.774,-0.01
7.776,-0.01
7.778,-0.005
7.78,-0.005
7.782,-0.005
7.784,-0.005
7.786,-0.005
7.788,-0.01
7.79,-0.01
7.792,-0.005
7.794,0
7.796,0.01
7.798,0.025
7.8,0.04
7.802,0.05
7.804,0.055
7.806,0.05
7.808,0.045
7.81,0.03
7.812,0.015
7.814,0
7.816,-0.005
7.818,-0.005
7.82,0
7.822,0.015
7.824,0.03
7.826,0.045
7.828,0.055
7.83,0.06
7.832,0.06
7.834,0.06
7.836,0.055
7.838,0.055
7.84,0.06
7.842,0.065
7.844,0.075
7.846,0.085
7.848,0.095
7.85,0.105
7.852,0.115
7.854,0.12
7.856,0.125
7.858,0.125
7.86,0.125
7.862,0.125
7.864,0.12
7.866,0.115
7.868,0.11
7.87,0.105
7.872,0.095
7.874,0.09
7.876,0.095
7.878,0.1
7.88,0.11
7.882,0.125
7.884,0.135
7.886,0.15
7.888,0.16
7.89,0.16
7.892,0.155
7.894,0.14
7.896,0.125
7.898,0.105
7.9,0.09
7.902,0.075
7.904,0.065
7.906,0.065
7.908,0.065
7.91,0.07
7.912,0.07
7.914,0.07
7.916,0.065
7.918,0.06
7.92,0.05
7.922,0.04
7.924,0.03
7.926,0.02
7.928,0.01
7.93,0.005
7.932,0
7.934,0
7.936,0
7.938,0
7.94,0
7.942,0.005
7.944,0.01
7.946,0.015
7.948,0.02
7.95,0.025
7.952,0.025
7.954,0.025
7.956,0.02
7.958,0.005
7.96,-0.01
7.962,-0.025
7.964,-0.04
7.966,-0.05
7.968,-0.055
7.97,-0.06
7.972,-0.055
7.974,-0.045
7.976,-0.035
7.978,-0.025
7.98,-0.015
7.982,-0.01
7.984,-0.01
7.986,-0.01
7.988,-0.02
7.99,-0.03
7.992,-0.035
7.994,-0.045
7.996,-0.05
7.998,-0.05
8,-0.05
8.002,-0.05
8.004,-0.05
8.006,-0.05
8.008,-0.05
8.01,-0.05
8.012,-0.05
8.014,-0.05
8.016,-0.05
8.018,-0.045
8.02,-0.045
8.022,-0.04
8.024,-0.035
8.026,-0.035
8.028,-0.03
8.03,-0.035
8.032,-0.035
8.034,-0.035
8.036,-0.035
8.038,-0.03
8.04,-0.025
8.042,-0.02
8.044,-0.015
8.046,-0.01
8.048,-0.01
8.05,-0.01
8.052,-0.015
8.054,-0.02
8.056,-0.025
8.058,-0.025
8.06,-0.03
8.062,-0.03
8.064,-0.03
8.066,-0.03
8.068,-0.035
8.07,-0.035
8.072,-0.04
8.074,-0.045
8.076,-0.045
8.078,-0.05
8.08,-0.045
8.082,-0.04
8.084,-0.03
8.086,-0.025
8.088,-0.02
8.09,-0.02
8.092,-0.025
8.094,-0.03
8.096,-0.04
8.098,-0.055
8.1,-0.065
8.102,-0.07
8.104,-0.07
8.106,-0.065
8.108,-0.055
8.11,-0.045
8.112,-0.035
8.114,-0.025
8.116,-0.015
8.118,-0.015
8.12,-0.015
8.122,-0.02
8.124,-0.025
8.126,-0.03
8.128,-0.03
8.13,-0.03
8.132,-0.03
8.134,-0.025
8.136,-0.02
8.138,-0.015
8.14,-0.015
8.142,-0.015
8.144,-0.02
8.146,-0.03
8.148,-0.035
8.15,-0.045
8.152,-0.045
8.154,-0.05
8.156,-0.05
8.158,-0.045
8.16,-0.045
8.162,-0.04
8.164,-0.04
8.166,-0.04
8.168,-0.04
8.17,-0.04
8.172,-0.045
8.174,-0.045
8.176,-0.045
8.178,-0.04
8.18,-0.035
8.182,-0.03
8.184,-0.025
8.186,-0.025
8.188,-0.025
8.19,-0.025
8.192,-0.03
8.194,-0.035
8.196,-0.04
8.198,-0.045
8.2,-0.045
8.202,-0.045
8.204,-0.045
8.206,-0.04
8.208,-0.04
8.21,-0.04
8.212,-0.04
8.214,-0.045
8.216,-0.05
8.218,-0.05
8.22,-0.055
8.222,-0.055
8.224,-0.055
8.226,-0.055
8.228,-0.05
8.23,-0.045
8.232,-0.045
8.234,-0.04
8.236,-0.04
8.238,-0.04
8.24,-0.045
8.242,-0.045
8.244,-0.05
8.246,-0.05
8.248,-0.05
8.25,-0.055
8.252,-0.05
8.254,-0.05
8.256,-0.045
8.258,-0.04
8.26,-0.03
8.262,-0.025
8.264,-0.02
8.266,-0.02
8.268,-0.02
8.27,-0.025
8.272,-0.03
8.274,-0.035
8.276,-0.035
8.278,-0.03
8.28,-0.02
8.282,-0.01
8.284,0
8.286,0.015
8.288,0.02
8.29,0.025
8.292,0.025
8.294,0.015
8.296,0.01
8.298,0
8.3,-0.005
8.302,-0.005
8.304,0
8.306,0.01
8.308,0.02
8.31,0.025
8.312,0.03
8.314,0.03
8.316,0.025
8.318,0.015
8.32,0
8.322,-0.015
8.324,-0.03
8.326,-0.04
8.328,-0.045
8.33,-0.05
8.332,-0.045
8.334,-0.045
8.336,-0.04
8.338,-0.04
8.34,-0.04
8.342,-0.045
8.344,-0.05
8.346,-0.055
8.348,-0.06
8.35,-0.06
8.352,-0.06
8.354,-0.06
8.356,-0.055
8.358,-0.05
8.36,-0.04
8.362,-0.035
8.364,-0.035
8.366,-0.03
8.368,-0.035
8.37,-0.04
8.372,-0.045
8.374,-0.05
8.376,-0.055
8.378,-0.06
8.38,-0.06
8.382,-0.055
8.384,-0.045
8.386,-0.025
8.388,0.005
8.39,0.04
8.392,0.085
8.394,0.135
8.396,0.195
8.398,0.255
8.4,0.315
8.402,0.365
8.404,0.405
8.406,0.425
8.408,0.42
8.41,0.395
8.412,0.35
8.414,0.29
8.416,0.215
8.418,0.145
8.42,0.08
8.422,0.025
8.424,-0.015
8.426,-0.04
8.428,-0.05
8.43,-0.05
8.432,-0.045
8.434,-0.035
8.436,-0.03
8.438,-0.03
8.44,-0.03
8.442,-0.035
8.444,-0.04
8.446,-0.045
8.448,-0.045
8.45,-0.045
8.452,-0.035
8.454,-0.025
8.456,-0.01
8.458,0
8.46,0.005
8.462,0.005
8.464,0
8.466,-0.005
8.468,-0.02
8.47,-0.035
8.472,-0.045
8.474,-0.055
8.476,-0.06
8.478,-0.06
8.48,-0.055
8.482,-0.05
8.484,-0.045
8.486,-0.04
8.488,-0.04
8.49,-0.035
8.492,-0.04
8.494,-0.04
8.496,-0.045
8.498,-0.05
8.5,-0.05
8.502,-0.05
8.504,-0.05
8.506,-0.045
8.508,-0.04
8.51,-0.035
8.512,-0.03
8.514,-0.025
8.516,-0.02
8.518,-0.015
8.52,-0.015
8.522,-0.015
8.524,-0.015
8.526,-0.015
8.528,-0.02
8.53,-0.02
8.532,-0.03
8.534,-0.035
8.536,-0.04
8.538,-0.04
8.54,-0.04
8.542,-0.035
8.544,-0.03
8.546,-0.02
8.548,-0.005
8.55,0.005
8.552,0.015
8.554,0.02
8.556,0.025
8.558,0.025
8.56,0.02
8.562,0.01
8.564,0
8.566,-0.01
8.568,-0.02
8.57,-0.03
8.572,-0.035
8.574,-0.035
8.576,-0.03
8.578,-0.025
8.58,-0.015
8.582,0
8.584,0.01
8.586,0.025
8.588,0.035
8.59,0.045
8.592,0.05
8.594,0.05
8.596,0.05
8.598,0.045
8.6,0.035
8.602,0.03
8.604,0.02
8.606,0.015
8.608,0.005
8.61,0.005
8.612,0
8.614,0
8.616,0.005
8.618,0.005
8.62,0.015
8.622,0.02
8.624,0.03
8.626,0.045
8.628,0.055
8.63,0.065
8.632,0.07
8.634,0.08
8.636,0.085
8.638,0.09
8.64,0.1
8.642,0.105
8.644,0.11
8.646,0.115
8.648,0.12
8.65,0.12
8.652,0.12
8.654,0.115
8.656,0.11
8.658,0.105
8.66,0.105
8.662,0.105
8.664,0.11
8.666,0.12
8.668,0.14
8.67,0.155
8.672,0.17
8.674,0.18
8.676,0.185
8.678,0.18
8.68,0.17
8.682,0.155
8.684,0.135
8.686,0.115
8.688,0.105
8.69,0.095
8.692,0.095
8.694,0.1
8.696,0.105
8.698,0.11
8.7,0.115
8.702,0.115
8.704,0.11
8.706,0.105
8.708,0.095
8.71,0.09
8.712,0.085
8.714,0.08
8.716,0.08
8.718,0.075
8.72,0.07
8.722,0.065
8.724,0.055
8.726,0.045
8.728,0.03
8.73,0.02
8.732,0.01
8.734,0.005
8.736,0
8.738,-0.005
8.74,-0.005
8.742,-0.01
8.744,-0.02
8.746,-0.03
8.748,-0.04
8.75,-0.045
8.752,-0.045
8.754,-0.045
8.756,-0.035
8.758,-0.025
8.76,-0.015
8.762,-0.005
8.764,-0.005
8.766,-0.005
8.768,-0.01
8.77,-0.02
8.772,-0.03
8.774,-0.04
8.776,-0.05
8.778,-0.055
8.78,-0.055
8.782,-0.06
8.784,-0.06
8.786,-0.06
8.788,-0.06
8.79,-0.065
8.792,-0.065
8.794,-0.065
8.796,-0.06
8.798,-0.055
8.8,-0.05
8.802,-0.04
8.804,-0.035
8.806,-0.03
8.808,-0.03
8.81,-0.035
8.812,-0.04
8.814,-0.045
8.816,-0.045
8.818,-0.045
8.82,-0.045
8.822,-0.04
8.824,-0.04
8.826,-0.045
8.828,-0.045
8.83,-0.055
8.832,-0.06
8.834,-0.065
8.836,-0.07
8.838,-0.065
8.84,-0.055
8.842,-0.04
8.844,-0.025
8.846,-0.01
8.848,0
8.85,0.005
8.852,0
8.854,-0.005
8.856,-0.015
8.858,-0.03
8.86,-0.04
8.862,-0.05
8.864,-0.06
8.866,-0.065
8.868,-0.07
8.87,-0.07
8.872,-0.065
8.874,-0.06
8.876,-0.05
8.878,-0.04
8.88,-0.025
8.882,-0.01
8.884,0.005
8.886,0.015
8.888,0.025
8.89,0.03
8.892,0.03
8.894,0.025
8.896,0.015
8.898,0
8.9,-0.01
8.902,-0.02
8.904,-0.03
8.906,-0.04
8.908,-0.055
8.91,-0.065
8.912,-0.075
8.914,-0.09
8.916,-0.1
8.918,-0.105
8.92,-0.11
8.922,-0.1
8.924,-0.085
8.926,-0.065
8.928,-0.035
8.93,-0.01
8.932,0.015
8.934,0.03
8.936,0.035
8.938,0.025
8.94,0.01
8.942,-0.02
8.944,-0.045
8.946,-0.075
8.948,-0.09
8.95,-0.1
8.952,-0.095
8.954,-0.08
8.956,-0.06
8.958,-0.04
8.96,-0.02
8.962,-0.005
8.964,0.005
8.966,0
8.968,-0.01
8.97,-0.02
8.972,-0.035
8.974,-0.045
8.976,-0.05
8.978,-0.055
8.98,-0.05
8.982,-0.045
8.984,-0.045
8.986,-0.04
8.988,-0.04
8.99,-0.045
8.992,-0.055
8.994,-0.06
8.996,-0.07
8.998,-0.075
9,-0.075
9.002,-0.075
9.004,-0.065
9.006,-0.055
9.008,-0.045
9.01,-0.035
9.012,-0.03
9.014,-0.03
9.016,-0.03
9.018,-0.04
9.02,-0.05
9.022,-0.06
9.024,-0.07
9.026,-0.075
9.028,-0.075
9.03,-0.07
9.032,-0.06
9.034,-0.045
9.036,-0.03
9.038,-0.02
9.04,-0.015
9.042,-0.015
9.044,-0.02
9.046,-0.03
9.048,-0.045
9.05,-0.055
9.052,-0.06
9.054,-0.06
9.056,-0.055
9.058,-0.045
9.06,-0.04
9.062,-0.03
9.064,-0.025
9.066,-0.025
9.068,-0.025
9.07,-0.03
9.072,-0.03
9.074,-0.03
9.076,-0.03
9.078,-0.025
9.08,-0.02
9.082,-0.015
9.084,-0.015
9.086,-0.02
9.088,-0.03
9.09,-0.04
9.092,-0.05
9.094,-0.055
9.096,-0.06
9.098,-0.055
9.1,-0.05
9.102,-0.035
9.104,-0.025
9.106,-0.01
9.108,0
9.11,0.005
9.112,0.01
9.114,0.01
9.116,0.01
9.118,0.01
9.12,0.005
9.122,0.005
9.124,0.005
9.126,0.005
9.128,0.005
9.13,0.005
9.132,0.005
9.134,0.005
9.136,0.005
9.138,0.005
9.14,0.005
9.142,0.005
9.144,0
9.146,-0.005
9.148,-0.015
9.15,-0.02
9.152,-0.03
9.154,-0.035
9.156,-0.035
9.158,-0.035
9.16,-0.035
9.162,-0.03
9.164,-0.025
9.166,-0.025
9.168,-0.025
9.17,-0.025
9.172,-0.025
9.174,-0.025
9.176,-0.025
9.178,-0.025
9.18,-0.02
9.182,-0.015
9.184,-0.01
9.186,-0.01
9.188,-0.01
9.19,-0.02
9.192,-0.035
9.194,-0.05
9.196,-0.065
9.198,-0.075
9.2,-0.08
9.202,-0.08
9.204,-0.07
9.206,-0.06
9.208,-0.05
9.21,-0.05
9.212,-0.05
9.214,-0.06
9.216,-0.07
9.218,-0.08
9.22,-0.075
9.222,-0.05
9.224,-0.005
9.226,0.065
9.228,0.16
9.23,0.265
9.232,0.365
9.234,0.46
9.236,0.525
9.238,0.555
9.24,0.555
9.242,0.52
9.244,0.46
9.246,0.39
9.248,0.31
9.25,0.235
9.252,0.175
9.254,0.13
9.256,0.095
9.258,0.07
9.26,0.045
9.262,0.03
9.264,0.01
9.266,-0.01
9.268,-0.03
9.27,-0.04
9.272,-0.045
9.274,-0.045
9.276,-0.04
9.278,-0.03
9.28,-0.02
9.282,-0.015
9.284,-0.015
9.286,-0.02
9.288,-0.03
9.29,-0.045
9.292,-0.055
9.294,-0.065
9.296,-0.07
9.298,-0.07
9.3,-0.07
9.302,-0.06
9.304,-0.055
9.306,-0.045
9.308,-0.04
9.31,-0.035
9.312,-0.025
9.314,-0.02
9.316,-0.015
9.318,-0.01
9.32,-0.005
9.322,-0.005
9.324,-0.01
9.326,-0.02
9.328,-0.03
9.33,-0.045
9.332,-0.06
9.334,-0.065
9.336,-0.07
9.338,-0.07
9.34,-0.06
9.342,-0.045
9.344,-0.03
9.346,-0.015
9.348,0
9.35,0.01
9.352,0.015
9.354,0.01
9.356,0.005
9.358,-0.005
9.36,-0.015
9.362,-0.03
9.364,-0.04
9.366,-0.05
9.368,-0.055
9.37,-0.055
9.372,-0.055
9.374,-0.05
9.376,-0.045
9.378,-0.04
9.38,-0.035
9.382,-0.03
9.384,-0.03
9.386,-0.025
9.388,-0.025
9.39,-0.02
9.392,-0.015
9.394,-0.005
9.396,0.005
9.398,0.015
9.4,0.02
9.402,0.025
9.404,0.02
9.406,0.01
9.408,-0.005
9.41,-0.02
9.412,-0.03
9.414,-0.035
9.416,-0.035
9.418,-0.035
9.42,-0.025
9.422,-0.015
9.424,0
9.426,0.005
9.428,0.01
9.43,0.01
9.432,0.005
9.434,0.005
9.436,0
9.438,0
9.44,0.005
9.442,0.01
9.444,0.01
9.446,0.015
9.448,0.015
9.45,0.015
9.452,0.015
9.454,0.02
9.456,0.02
9.458,0.03
9.46,0.04
9.462,0.05
9.464,0.065
9.466,0.075
9.468,0.08
9.47,0.085
9.472,0.085
9.474,0.085
9.476,0.08
9.478,0.08
9.48,0.085
9.482,0.09
9.484,0.1
9.486,0.115
9.488,0.13
9.49,0.14
9.492,0.15
9.494,0.15
9.496,0.145
9.498,0.135
9.5,0.125
9.502,0.11
9.504,0.105
9.506,0.1
9.508,0.1
9.51,0.105
9.512,0.115
9.514,0.125
9.516,0.135
9.518,0.14
9.52,0.145
9.522,0.14
9.524,0.135
9.526,0.125
9.528,0.11
9.53,0.1
9.532,0.095
9.534,0.09
9.536,0.09
9.538,0.09
9.54,0.095
9.542,0.1
9.544,0.105
9.546,0.105
9.548,0.1
9.55,0.095
9.552,0.085
9.554,0.075
9.556,0.065
9.558,0.05
9.56,0.045
9.562,0.035
9.564,0.03
9.566,0.025
9.568,0.025
9.57,0.025
9.572,0.025
9.574,0.025
9.576,0.025
9.578,0.025
9.58,0.025
9.582,0.02
9.584,0.015
9.586,0.005
9.588,0
9.59,-0.01
9.592,-0.015
9.594,-0.02
9.596,-0.025
9.598,-0.03
9.6,-0.03
9.602,-0.035
9.604,-0.04
9.606,-0.045
9.608,-0.05
9.61,-0.055
9.612,-0.055
9.614,-0.06
9.616,-0.06
9.618,-0.055
9.62,-0.045
9.622,-0.04
9.624,-0.03
9.626,-0.025
9.628,-0.025
9.63,-0.025
9.632,-0.03
9.634,-0.035
9.636,-0.045
9.638,-0.05
9.64,-0.05
9.642,-0.05
9.644,-0.045
9.646,-0.035
9.648,-0.025
9.65,-0.015
9.652,-0.01
9.654,-0.005
9.656,-0.005
9.658,-0.005
9.66,-0.01
9.662,-0.02
9.664,-0.025
9.666,-0.03
9.668,-0.035
9.67,-0.03
9.672,-0.03
9.674,-0.025
9.676,-0.02
9.678,-0.015
9.68,-0.015
9.682,-0.015
9.684,-0.02
9.686,-0.03
9.688,-0.04
9.69,-0.05
9.692,-0.06
9.694,-0.065
9.696,-0.065
9.698,-0.06
9.7,-0.055
9.702,-0.045
9.704,-0.035
9.706,-0.025
9.708,-0.02
9.71,-0.015
9.712,-0.02
9.714,-0.025
9.716,-0.03
9.718,-0.035
9.72,-0.035
9.722,-0.035
9.724,-0.03
9.726,-0.025
9.728,-0.015
9.73,-0.005
9.732,0
9.734,0
9.736,0
9.738,-0.01
9.74,-0.02
9.742,-0.03
9.744,-0.035
9.746,-0.04
9.748,-0.04
9.75,-0.035
9.752,-0.025
9.754,-0.015
9.756,-0.005
9.758,0
9.76,0
9.762,-0.005
9.764,-0.015
9.766,-0.025
9.768,-0.035
9.77,-0.045
9.772,-0.05
9.774,-0.055
9.776,-0.055
9.778,-0.055
9.78,-0.05
9.782,-0.05
9.784,-0.05
9.786,-0.045
9.788,-0.045
9.79,-0.045
9.792,-0.045
9.794,-0.04
9.796,-0.035
9.798,-0.03
9.8,-0.03
9.802,-0.025
9.804,-0.02
9.806,-0.02
9.808,-0.02
9.81,-0.02
9.812,-0.02
9.814,-0.02
9.816,-0.025
9.818,-0.025
9.82,-0.03
9.822,-0.035
9.824,-0.04
9.826,-0.045
9.828,-0.045
9.83,-0.045
9.832,-0.045
9.834,-0.04
9.836,-0.03
9.838,-0.025
9.84,-0.015
9.842,-0.01
9.844,-0.01
9.846,-0.01
9.848,-0.02
9.85,-0.03
9.852,-0.04
9.854,-0.05
9.856,-0.055
9.858,-0.06
9.86,-0.055
9.862,-0.05
9.864,-0.045
9.866,-0.035
9.868,-0.025
9.87,-0.02
9.872,-0.015
9.874,-0.015
9.876,-0.015
9.878,-0.015
9.88,-0.02
9.882,-0.02
9.884,-0.025
9.886,-0.03
9.888,-0.04
9.89,-0.045
9.892,-0.05
9.894,-0.05
9.896,-0.05
9.898,-0.05
9.9,-0.045
9.902,-0.035
9.904,-0.025
9.906,-0.015
9.908,-0.01
9.91,0
9.912,0
9.914,0
9.916,-0.005
9.918,-0.01
9.92,-0.015
9.922,-0.02
9.924,-0.02
9.926,-0.02
9.928,-0.02
9.93,-0.02
9.932,-0.02
9.934,-0.025
9.936,-0.03
9.938,-0.035
9.94,-0.045
9.942,-0.055
9.944,-0.065
9.946,-0.07
9.948,-0.07
9.95,-0.07
9.952,-0.07
9.954,-0.065
9.956,-0.06
9.958,-0.055
9.96,-0.05
9.962,-0.045
9.964,-0.04
9.966,-0.035
9.968,-0.035
9.97,-0.03
9.972,-0.03
9.974,-0.03
9.976,-0.03
9.978,-0.035
9.98,-0.045
9.982,-0.05
9.984,-0.055
9.986,-0.06
9.988,-0.06
9.99,-0.055
9.992,-0.045
9.994,-0.035
9.996,-0.02
9.998,-0.01
