0,0.01
0.002,0.015
0.004,0.015
0.006,0.01
0.008,0
0.01,-0.01
0.012,-0.025
0.014,-0.035
0.016,-0.04
0.018,-0.035
0.02,-0.025
0.022,-0.015
0.024,0
0.026,0.01
0.028,0.015
0.03,0.01
0.032,0.005
0.034,-0.005
0.036,-0.015
0.038,-0.02
0.04,-0.025
0.042,-0.02
0.044,-0.015
0.046,-0.01
0.048,-0.005
0.05,0
0.052,0
0.054,0
0.056,-0.005
0.058,-0.01
0.06,-0.015
0.062,-0.015
0.064,-0.02
0.066,-0.025
0.068,-0.025
0.07,-0.035
0.072,-0.04
0.074,-0.045
0.076,-0.045
0.078,-0.045
0.08,-0.04
0.082,-0.03
0.084,-0.02
0.086,-0.01
0.088,0
0.09,0.01
0.092,0.01
0.094,0.01
0.096,0.01
0.098,0.005
0.1,0
0.102,0
0.104,0
0.106,0.005
0.108,0.015
0.11,0.025
0.112,0.03
0.114,0.035
0.116,0.04
0.118,0.035
0.12,0.025
0.122,0.015
0.124,0.005
0.126,-0.005
0.128,-0.01
0.13,-0.01
0.132,-0.01
0.134,0
0.136,0.01
0.138,0.025
0.14,0.04
0.142,0.05
0.144,0.06
0.146,0.07
0.148,0.07
0.15,0.07
0.152,0.07
0.154,0.07
0.156,0.07
0.158,0.075
0.16,0.08
0.162,0.085
0.164,0.095
0.166,0.105
0.168,0.11
0.17,0.115
0.172,0.12
0.174,0.125
0.176,0.125
0.178,0.13
0.18,0.135
0.182,0.14
0.184,0.145
0.186,0.15
0.188,0.16
0.19,0.165
0.192,0.17
0.194,0.175
0.196,0.175
0.198,0.18
0.2,0.185
0.202,0.185
0.204,0.19
0.206,0.195
0.208,0.2
0.21,0.205
0.212,0.21
0.214,0.21
0.216,0.21
0.218,0.21
0.22,0.205
0.222,0.2
0.224,0.2
0.226,0.2
0.228,0.2
0.23,0.195
0.232,0.195
0.234,0.19
0.236,0.185
0.238,0.18
0.24,0.17
0.242,0.165
0.244,0.165
0.246,0.165
0.248,0.165
0.25,0.17
0.252,0.175
0.254,0.175
0.256,0.17
0.258,0.16
0.26,0.15
0.262,0.135
0.264,0.125
0.266,0.115
0.268,0.105
0.27,0.105
0.272,0.105
0.274,0.105
0.276,0.105
0.278,0.105
0.28,0.1
0.282,0.095
0.284,0.08
0.286,0.07
0.288,0.06
0.29,0.05
0.292,0.045
0.294,0.045
0.296,0.04
0.298,0.04
0.3,0.04
0.302,0.035
0.304,0.03
0.306,0.025
0.308,0.02
0.31,0.015
0.312,0.015
0.314,0.015
0.316,0.02
0.318,0.025
0.32,0.03
0.322,0.03
0.324,0.03
0.326,0.03
0.328,0.025
0.33,0.02
0.332,0.015
0.334,0.015
0.336,0.01
0.338,0.01
0.34,0.01
0.342,0.005
0.344,0
0.346,-0.005
0.348,-0.01
0.35,-0.015
0.352,-0.02
0.354,-0.02
0.356,-0.02
0.358,-0.015
0.36,-0.01
0.362,0
0.364,0.005
0.366,0.01
0.368,0.015
0.37,0.01
0.372,0.005
0.374,0
0.376,-0.01
0.378,-0.02
0.38,-0.025
0.382,-0.025
0.384,-0.025
0.386,-0.02
0.388,-0.015
0.39,-0.01
0.392,-0.01
0.394,-0.005
0.396,-0.005
0.398,-0.01
0.4,-0.015
0.402,-0.025
0.404,-0.03
0.406,-0.035
0.408,-0.04
0.41,-0.04
0.412,-0.04
0.414,-0.04
0.416,-0.035
0.418,-0.035
0.42,-0.035
0.422,-0.035
0.424,-0.04
0.426,-0.045
0.428,-0.05
0.43,-0.055
0.432,-0.055
0.434,-0.055
0.436,-0.055
0.438,-0.05
0.44,-0.045
0.442,-0.045
0.444,-0.045
0.446,-0.045
0.448,-0.05
0.45,-0.055
0.452,-0.06
0.454,-0.06
0.456,-0.065
0.458,-0.065
0.46,-0.06
0.462,-0.055
0.464,-0.05
0.466,-0.05
0.468,-0.045
0.47,-0.045
0.472,-0.04
0.474,-0.04
0.476,-0.04
0.478,-0.04
0.48,-0.04
0.482,-0.04
0.484,-0.045
0.486,-0.045
0.488,-0.05
0.49,-0.06
0.492,-0.065
0.494,-0.07
0.496,-0.075
0.498,-0.075
0.5,-0.075
0.502,-0.07
0.504,-0.065
0.506,-0.065
0.508,-0.06
0.51,-0.065
0.512,-0.065
0.514,-0.07
0.516,-0.07
0.518,-0.07
0.52,-0.07
0.522,-0.065
0.524,-0.055
0.526,-0.05
0.528,-0.045
0.53,-0.04
0.532,-0.045
0.534,-0.05
0.536,-0.06
0.538,-0.07
0.54,-0.08
0.542,-0.085
0.544,-0.085
0.546,-0.08
0.548,-0.075
0.55,-0.065
0.552,-0.06
0.554,-0.055
0.556,-0.05
0.558,-0.05
0.56,-0.055
0.562,-0.055
0.564,-0.055
0.566,-0.055
0.568,-0.055
0.57,-0.055
0.572,-0.055
0.574,-0.055
0.576,-0.055
0.578,-0.06
0.58,-0.07
0.582,-0.075
0.584,-0.08
0.586,-0.08
0.588,-0.08
0.59,-0.075
0.592,-0.065
0.594,-0.06
0.596,-0.055
0.598,-0.055
0.6,-0.055
0.602,-0.06
0.604,-0.065
0.606,-0.07
0.608,-0.075
0.61,-0.075
0.612,-0.075
0.614,-0.075
0.616,-0.07
0.618,-0.06
0.62,-0.055
0.622,-0.05
0.624,-0.05
0.626,-0.045
0.628,-0.045
0.63,-0.04
0.632,-0.04
0.634,-0.04
0.636,-0.045
0.638,-0.05
0.64,-0.055
0.642,-0.065
0.644,-0.07
0.646,-0.08
0.648,-0.09
0.65,-0.095
0.652,-0.095
0.654,-0.095
0.656,-0.095
0.658,-0.09
0.66,-0.085
0.662,-0.08
0.664,-0.075
0.666,-0.07
0.668,-0.07
0.67,-0.065
0.672,-0.065
0.674,-0.065
0.676,-0.065
0.678,-0.065
0.68,-0.065
0.682,-0.07
0.684,-0.07
0.686,-0.07
0.688,-0.075
0.69,-0.075
0.692,-0.08
0.694,-0.08
0.696,-0.08
0.698,-0.075
0.7,-0.075
0.702,-0.07
0.704,-0.07
0.706,-0.07
0.708,-0.065
0.71,-0.065
0.712,-0.065
0.714,-0.065
0.716,-0.065
0.718,-0.065
0.72,-0.065
0.722,-0.065
0.724,-0.065
0.726,-0.07
0.728,-0.07
0.73,-0.07
0.732,-0.075
0.734,-0.075
0.736,-0.075
0.738,-0.075
0.74,-0.075
0.742,-0.075
0.744,-0.07
0.746,-0.065
0.748,-0.06
0.75,-0.055
0.752,-0.055
0.754,-0.055
0.756,-0.06
0.758,-0.07
0.76,-0.075
0.762,-0.085
0.764,-0.09
0.766,-0.095
0.768,-0.09
0.77,-0.09
0.772,-0.08
0.774,-0.07
0.776,-0.065
0.778,-0.055
0.78,-0.05
0.782,-0.05
0.784,-0.055
0.786,-0.055
0.788,-0.055
0.79,-0.055
0.792,-0.055
0.794,-0.05
0.796,-0.04
0.798,-0.03
0.8,-0.02
0.802,-0.015
0.804,-0.01
0.806,-0.01
0.808,-0.015
0.81,-0.02
0.812,-0.025
0.814,-0.03
0.816,-0.035
0.818,-0.035
0.82,-0.03
0.822,-0.025
0.824,-0.015
0.826,-0.005
0.828,0.005
0.83,0.01
0.832,0.02
0.834,0.025
0.836,0.03
0.838,0.03
0.84,0.03
0.842,0.025
0.844,0.015
0.846,0.01
0.848,0
0.85,-0.01
0.852,-0.015
0.854,-0.02
0.856,-0.025
0.858,-0.03
0.86,-0.03
0.862,-0.03
0.864,-0.03
0.866,-0.03
0.868,-0.03
0.87,-0.03
0.872,-0.035
0.874,-0.04
0.876,-0.045
0.878,-0.05
0.88,-0.055
0.882,-0.065
0.884,-0.07
0.886,-0.075
0.888,-0.075
0.89,-0.075
0.892,-0.075
0.894,-0.07
0.896,-0.07
0.898,-0.065
0.9,-0.065
0.902,-0.07
0.904,-0.07
0.906,-0.075
0.908,-0.08
0.91,-0.08
0.912,-0.08
0.914,-0.075
0.916,-0.065
0.918,-0.05
0.92,-0.03
0.922,-0.005
0.924,0.02
0.926,0.05
0.928,0.07
0.93,0.085
0.932,0.095
0.934,0.085
0.936,0.07
0.938,0.035
0.94,-0.01
0.942,-0.06
0.944,-0.11
0.946,-0.16
0.948,-0.2
0.95,-0.23
0.952,-0.245
0.954,-0.245
0.956,-0.235
0.958,-0.215
0.96,-0.19
0.962,-0.16
0.964,-0.135
0.966,-0.115
0.968,-0.1
0.97,-0.085
0.972,-0.075
0.974,-0.07
0.976,-0.065
0.978,-0.06
0.98,-0.055
0.982,-0.05
0.984,-0.05
0.986,-0.05
0.988,-0.055
0.99,-0.06
0.992,-0.065
0.994,-0.065
0.996,-0.07
0.998,-0.065
1,-0.06
1.002,-0.05
1.004,-0.04
1.006,-0.03
1.008,-0.02
1.01,-0.015
1.012,-0.01
1.014,-0.005
1.016,-0.01
1.018,-0.01
1.02,-0.015
1.022,-0.02
1.024,-0.025
1.026,-0.025
1.028,-0.025
1.03,-0.02
1.032,-0.015
1.034,-0.01
1.036,-0.005
1.038,0.005
1.04,0.005
1.042,0.005
1.044,0.005
1.046,0
1.048,-0.005
1.05,-0.01
1.052,-0.015
1.054,-0.015
1.056,-0.015
1.058,-0.015
1.06,-0.01
1.062,-0.005
1.064,0
1.066,0
1.068,0.005
1.07,0.005
1.072,0.005
1.074,0.005
1.076,0.01
1.078,0.01
1.08,0.01
1.082,0.01
1.084,0.01
1.086,0.005
1.088,0.005
1.09,0
1.092,-0.005
1.094,-0.005
1.096,-0.005
1.098,0
1.1,0.01
1.102,0.025
1.104,0.04
1.106,0.055
1.108,0.065
1.11,0.07
1.112,0.07
1.114,0.065
1.116,0.055
1.118,0.045
1.12,0.035
1.122,0.03
1.124,0.03
1.126,0.035
1.128,0.04
1.13,0.05
1.132,0.06
1.134,0.065
1.136,0.065
1.138,0.065
1.14,0.065
1.142,0.06
1.144,0.06
1.146,0.06
1.148,0.06
1.15,0.065
1.152,0.07
1.154,0.075
1.156,0.08
1.158,0.085
1.16,0.085
1.162,0.09
1.164,0.1
1.166,0.105
1.168,0.115
1.17,0.125
1.172,0.135
1.174,0.145
1.176,0.15
1.178,0.15
1.18,0.15
1.182,0.145
1.184,0.145
1.186,0.15
1.188,0.155
1.19,0.165
1.192,0.18
1.194,0.195
1.196,0.21
1.198,0.22
1.2,0.225
1.202,0.23
1.204,0.23
1.206,0.23
1.208,0.23
1.21,0.235
1.212,0.24
1.214,0.24
1.216,0.245
1.218,0.245
1.22,0.245
1.222,0.24
1.224,0.235
1.226,0.23
1.228,0.23
1.23,0.23
1.232,0.23
1.234,0.235
1.236,0.235
1.238,0.24
1.24,0.245
1.242,0.245
1.244,0.24
1.246,0.24
1.248,0.235
1.25,0.235
1.252,0.235
1.254,0.24
1.256,0.245
1.258,0.25
1.26,0.255
1.262,0.25
1.264,0.24
1.266,0.23
1.268,0.215
1.27,0.195
1.272,0.175
1.274,0.16
1.276,0.14
1.278,0.13
1.28,0.115
1.282,0.105
1.284,0.09
1.286,0.075
1.288,0.06
1.29,0.04
1.292,0.025
1.294,0.01
1.296,0
1.298,-0.01
1.3,-0.01
1.302,-0.005
1.304,0
1.306,0.01
1.308,0.015
1.31,0.02
1.312,0.02
1.314,0.015
1.316,0.01
1.318,-0.005
1.32,-0.02
1.322,-0.035
1.324,-0.045
1.326,-0.055
1.328,-0.065
1.33,-0.065
1.332,-0.065
1.334,-0.065
1.336,-0.06
1.338,-0.055
1.34,-0.055
1.342,-0.05
1.344,-0.05
1.346,-0.05
1.348,-0.05
1.35,-0.05
1.352,-0.05
1.354,-0.05
1.356,-0.045
1.358,-0.04
1.36,-0.04
1.362,-0.035
1.364,-0.035
1.366,-0.03
1.368,-0.03
1.37,-0.03
1.372,-0.03
1.374,-0.025
1.376,-0.025
1.378,-0.02
1.38,-0.015
1.382,-0.015
1.384,-0.015
1.386,-0.015
1.388,-0.015
1.39,-0.02
1.392,-0.02
1.394,-0.025
1.396,-0.02
1.398,-0.02
1.4,-0.015
1.402,-0.01
1.404,-0.005
1.406,0
1.408,0
1.41,-0.005
1.412,-0.01
1.414,-0.015
1.416,-0.02
1.418,-0.025
1.42,-0.025
1.422,-0.02
1.424,-0.015
1.426,-0.005
1.428,0.005
1.43,0.01
1.432,0.015
1.434,0.015
1.436,0.01
1.438,0.005
1.44,0
1.442,-0.005
1.444,-0.01
1.446,-0.015
1.448,-0.015
1.45,-0.015
1.452,-0.01
1.454,-0.005
1.456,0
1.458,0.005
1.46,0.005
1.462,0.005
1.464,0
1.466,-0.005
1.468,-0.015
1.47,-0.025
1.472,-0.035
1.474,-0.045
1.476,-0.05
1.478,-0.05
1.48,-0.045
1.482,-0.04
1.484,-0.03
1.486,-0.02
1.488,-0.01
1.49,0
1.492,0.01
1.494,0.01
1.496,0.01
1.498,0.005
1.5,0
1.502,-0.005
1.504,-0.015
1.506,-0.02
1.508,-0.025
1.51,-0.03
1.512,-0.03
1.514,-0.03
1.516,-0.025
1.518,-0.025
1.52,-0.02
1.522,-0.015
1.524,-0.015
1.526,-0.015
1.528,-0.02
1.53,-0.02
1.532,-0.025
1.534,-0.03
1.536,-0.035
1.538,-0.04
1.54,-0.045
1.542,-0.045
1.544,-0.045
1.546,-0.045
1.548,-0.04
1.55,-0.04
1.552,-0.035
1.554,-0.035
1.556,-0.03
1.558,-0.02
1.56,-0.015
1.562,-0.01
1.564,-0.005
1.566,-0.005
1.568,-0.005
1.57,-0.01
1.572,-0.02
1.574,-0.03
1.576,-0.04
1.578,-0.05
1.58,-0.06
1.582,-0.06
1.584,-0.055
1.586,-0.045
1.588,-0.035
1.59,-0.025
1.592,-0.015
1.594,-0.005
1.596,0
1.598,0
1.6,0
1.602,0
1.604,-0.005
1.606,-0.005
1.608,-0.005
1.61,-0.01
1.612,-0.01
1.614,-0.01
1.616,-0.015
1.618,-0.02
1.62,-0.03
1.622,-0.035
1.624,-0.045
1.626,-0.05
1.628,-0.05
1.63,-0.05
1.632,-0.05
1.634,-0.045
1.636,-0.035
1.638,-0.03
1.64,-0.02
1.642,-0.015
1.644,-0.015
1.646,-0.015
1.648,-0.02
1.65,-0.03
1.652,-0.04
1.654,-0.05
1.656,-0.06
1.658,-0.065
1.66,-0.07
1.662,-0.065
1.664,-0.06
1.666,-0.055
1.668,-0.045
1.67,-0.035
1.672,-0.025
1.674,-0.02
1.676,-0.015
1.678,-0.015
1.68,-0.015
1.682,-0.02
1.684,-0.02
1.686,-0.025
1.688,-0.03
1.69,-0.03
1.692,-0.03
1.694,-0.03
1.696,-0.03
1.698,-0.025
1.7,-0.015
1.702,-0.01
1.704,0
1.706,0.005
1.708,0.005
1.71,0.005
1.712,0
1.714,-0.01
1.716,-0.02
1.718,-0.03
1.72,-0.045
1.722,-0.05
1.724,-0.055
1.726,-0.055
1.728,-0.055
1.73,-0.045
1.732,-0.04
1.734,-0.035
1.736,-0.03
1.738,-0.03
1.74,-0.03
1.742,-0.035
1.744,-0.035
1.746,-0.035
1.748,-0.03
1.75,-0.03
1.752,-0.025
1.754,-0.02
1.756,-0.02
1.758,-0.02
1.76,-0.02
1.762,-0.025
1.764,-0.025
1.766,-0.025
1.768,-0.03
1.77,-0.025
1.772,-0.025
1.774,-0.02
1.776,-0.02
1.778,-0.015
1.78,-0.015
1.782,-0.015
1.784,-0.015
1.786,-0.02
1.788,-0.02
1.79,-0.02
1.792,-0.02
1.794,-0.02
1.796,-0.015
1.798,-0.015
1.8,-0.01
1.802,-0.01
1.804,-0.015
1.806,-0.015
1.808,-0.015
1.81,-0.015
1.812,-0.015
1.814,-0.015
1.816,-0.01
1.818,-0.005
1.82,0
1.822,0.005
1.824,0.01
1.826,0.015
1.828,0.02
1.83,0.025
1.832,0.025
1.834,0.025
1.836,0.025
1.838,0.02
1.84,0.015
1.842,0.01
1.844,0.005
1.846,0
1.848,-0.005
1.85,-0.005
1.852,-0.01
1.854,-0.01
1.856,-0.01
1.858,-0.01
1.86,-0.01
1.862,-0.015
1.864,-0.015
1.866,-0.02
1.868,-0.025
1.87,-0.03
1.872,-0.03
1.874,-0.035
1.876,-0.035
1.878,-0.035
1.88,-0.03
1.882,-0.03
1.884,-0.025
1.886,-0.025
1.888,-0.025
1.89,-0.025
1.892,-0.03
1.894,-0.035
1.896,-0.04
1.898,-0.045
1.9,-0.05
1.902,-0.05
1.904,-0.045
1.906,-0.04
1.908,-0.035
1.91,-0.025
1.912,-0.02
1.914,-0.015
1.916,-0.02
1.918,-0.025
1.92,-0.035
1.922,-0.045
1.924,-0.06
1.926,-0.065
1.928,-0.06
1.93,-0.05
1.932,-0.025
1.934,0.005
1.936,0.035
1.938,0.07
1.94,0.095
1.942,0.11
1.944,0.115
1.946,0.1
1.948,0.075
1.95,0.035
1.952,-0.01
1.954,-0.065
1.956,-0.115
1.958,-0.16
1.96,-0.2
1.962,-0.225
1.964,-0.24
1.966,-0.245
1.968,-0.235
1.97,-0.22
1.972,-0.195
1.974,-0.17
1.976,-0.14
1.978,-0.115
1.98,-0.095
1.982,-0.085
1.984,-0.075
1.986,-0.07
1.988,-0.07
1.99,-0.075
1.992,-0.075
1.994,-0.075
1.996,-0.07
1.998,-0.065
2,-0.055
2.002,-0.045
2.004,-0.035
2.006,-0.03
2.008,-0.025
2.01,-0.03
2.012,-0.03
2.014,-0.035
2.016,-0.035
2.018,-0.04
2.02,-0.035
2.022,-0.03
2.024,-0.025
2.026,-0.02
2.028,-0.015
2.03,-0.01
2.032,-0.01
2.034,-0.01
2.036,-0.015
2.038,-0.02
2.04,-0.025
2.042,-0.03
2.044,-0.03
2.046,-0.03
2.048,-0.025
2.05,-0.02
2.052,-0.01
2.054,-0.005
2.056,0.005
2.058,0.01
2.06,0.01
2.062,0.015
2.064,0.015
2.066,0.01
2.068,0.005
2.07,0
2.072,-0.005
2.074,-0.015
2.076,-0.025
2.078,-0.03
2.08,-0.03
2.082,-0.03
2.084,-0.02
2.086,-0.005
2.088,0.01
2.09,0.03
2.092,0.045
2.094,0.06
2.096,0.065
2.098,0.07
2.1,0.065
2.102,0.055
2.104,0.045
2.106,0.035
2.108,0.03
2.11,0.025
2.112,0.025
2.114,0.025
2.116,0.03
2.118,0.03
2.12,0.035
2.122,0.035
2.124,0.035
2.126,0.03
2.128,0.025
2.13,0.02
2.132,0.02
2.134,0.015
2.136,0.01
2.138,0.005
2.14,-0.005
2.142,-0.01
2.144,-0.015
2.146,-0.02
2.148,-0.02
2.15,-0.02
2.152,-0.015
2.154,-0.01
2.156,0
2.158,0.01
2.16,0.02
2.162,0.03
2.164,0.035
2.166,0.04
2.168,0.045
2.17,0.05
2.172,0.055
2.174,0.06
2.176,0.07
2.178,0.08
2.18,0.09
2.182,0.095
2.184,0.105
2.186,0.11
2.188,0.115
2.19,0.115
2.192,0.125
2.194,0.13
2.196,0.14
2.198,0.15
2.2,0.165
2.202,0.175
2.204,0.18
2.206,0.185
2.208,0.185
2.21,0.185
2.212,0.18
2.214,0.18
2.216,0.185
2.218,0.19
2.22,0.195
2.222,0.205
2.224,0.21
2.226,0.22
2.228,0.225
2.23,0.225
2.232,0.225
2.234,0.225
2.236,0.23
2.238,0.23
2.24,0.23
2.242,0.235
2.244,0.24
2.246,0.24
2.248,0.24
2.25,0.235
2.252,0.23
2.254,0.225
2.256,0.22
2.258,0.215
2.26,0.215
2.262,0.215
2.264,0.21
2.266,0.21
2.268,0.205
2.27,0.195
2.272,0.185
2.274,0.17
2.276,0.15
2.278,0.14
2.28,0.125
2.282,0.12
2.284,0.115
2.286,0.11
2.288,0.11
2.29,0.105
2.292,0.1
2.294,0.095
2.296,0.085
2.298,0.075
2.3,0.07
2.302,0.06
2.304,0.05
2.306,0.045
2.308,0.04
2.31,0.035
2.312,0.025
2.314,0.02
2.316,0.01
2.318,0.005
2.32,0
2.322,-0.005
2.324,-0.005
2.326,0
2.328,0
2.33,0.005
2.332,0.005
2.334,0.005
2.336,0.005
2.338,0
2.34,-0.01
2.342,-0.015
2.344,-0.02
2.346,-0.02
2.348,-0.025
2.35,-0.025
2.352,-0.025
2.354,-0.025
2.356,-0.025
2.358,-0.03
2.36,-0.035
2.362,-0.04
2.364,-0.04
2.366,-0.04
2.368,-0.035
2.37,-0.035
2.372,-0.025
2.374,-0.02
2.376,-0.015
2.378,-0.015
2.38,-0.015
2.382,-0.02
2.384,-0.025
2.386,-0.03
2.388,-0.03
2.39,-0.035
2.392,-0.035
2.394,-0.035
2.396,-0.035
2.398,-0.03
2.4,-0.03
2.402,-0.03
2.404,-0.035
2.406,-0.035
2.408,-0.035
2.41,-0.035
2.412,-0.03
2.414,-0.02
2.416,-0.015
2.418,-0.005
2.42,0
2.422,0.005
2.424,0
2.426,-0.005
2.428,-0.02
2.43,-0.03
2.432,-0.04
2.434,-0.05
2.436,-0.05
2.438,-0.045
2.44,-0.04
2.442,-0.025
2.444,-0.015
2.446,-0.01
2.448,-0.005
2.45,-0.005
2.452,-0.01
2.454,-0.015
2.456,-0.02
2.458,-0.025
2.46,-0.025
2.462,-0.02
2.464,-0.015
2.466,-0.01
2.468,-0.005
2.47,0
2.472,-0.005
2.474,-0.01
2.476,-0.02
2.478,-0.03
2.48,-0.04
2.482,-0.05
2.484,-0.055
2.486,-0.06
2.488,-0.06
2.49,-0.055
2.492,-0.05
2.494,-0.04
2.496,-0.035
2.498,-0.03
2.5,-0.03
2.502,-0.025
2.504,-0.025
2.506,-0.03
2.508,-0.03
2.51,-0.03
2.512,-0.03
2.514,-0.03
2.516,-0.03
2.518,-0.03
2.52,-0.03
2.522,-0.03
2.524,-0.03
2.526,-0.035
2.528,-0.035
2.53,-0.04
2.532,-0.045
2.534,-0.045
2.536,-0.045
2.538,-0.04
2.54,-0.035
2.542,-0.035
2.544,-0.03
2.546,-0.03
2.548,-0.035
2.55,-0.04
2.552,-0.045
2.554,-0.05
2.556,-0.05
2.558,-0.05
2.56,-0.045
2.562,-0.04
2.564,-0.035
2.566,-0.03
2.568,-0.025
2.57,-0.025
2.572,-0.03
2.574,-0.035
2.576,-0.045
2.578,-0.05
2.58,-0.06
2.582,-0.065
2.584,-0.065
2.586,-0.065
2.588,-0.065
2.59,-0.065
2.592,-0.065
2.594,-0.065
2.596,-0.065
2.598,-0.065
2.6,-0.06
2.602,-0.055
2.604,-0.05
2.606,-0.045
2.608,-0.04
2.61,-0.035
2.612,-0.03
2.614,-0.03
2.616,-0.035
2.618,-0.04
2.62,-0.045
2.622,-0.05
2.624,-0.05
2.626,-0.055
2.628,-0.055
2.63,-0.055
2.632,-0.05
2.634,-0.05
2.636,-0.045
2.638,-0.045
2.64,-0.04
2.642,-0.04
2.644,-0.045
2.646,-0.045
2.648,-0.05
2.65,-0.05
2.652,-0.05
2.654,-0.05
2.656,-0.05
2.658,-0.05
2.66,-0.05
2.662,-0.045
2.664,-0.045
2.666,-0.045
2.668,-0.05
2.67,-0.05
2.672,-0.055
2.674,-0.055
2.676,-0.055
2.678,-0.055
2.68,-0.05
2.682,-0.05
2.684,-0.045
2.686,-0.04
2.688,-0.035
2.69,-0.03
2.692,-0.03
2.694,-0.025
2.696,-0.025
2.698,-0.02
2.7,-0.02
2.702,-0.02
2.704,-0.02
2.706,-0.02
2.708,-0.025
2.71,-0.025
2.712,-0.03
2.714,-0.03
2.716,-0.025
2.718,-0.025
2.72,-0.015
2.722,-0.01
2.724,-0.005
2.726,0
2.728,0.005
2.73,0
2.732,-0.005
2.734,-0.015
2.736,-0.025
2.738,-0.035
2.74,-0.04
2.742,-0.045
2.744,-0.04
2.746,-0.035
2.748,-0.03
2.75,-0.025
2.752,-0.025
2.754,-0.03
2.756,-0.035
2.758,-0.045
2.76,-0.055
2.762,-0.065
2.764,-0.07
2.766,-0.075
2.768,-0.07
2.77,-0.065
2.772,-0.06
2.774,-0.06
2.776,-0.055
2.778,-0.06
2.78,-0.065
2.782,-0.075
2.784,-0.08
2.786,-0.085
2.788,-0.09
2.79,-0.085
2.792,-0.075
2.794,-0.065
2.796,-0.055
2.798,-0.04
2.8,-0.03
2.802,-0.02
2.804,-0.015
2.806,-0.01
2.808,-0.015
2.81,-0.02
2.812,-0.03
2.814,-0.04
2.816,-0.05
2.818,-0.06
2.82,-0.065
2.822,-0.07
2.824,-0.07
2.826,-0.065
2.828,-0.06
2.83,-0.045
2.832,-0.03
2.834,-0.015
2.836,0
2.838,0.01
2.84,0.015
2.842,0.02
2.844,0.015
2.846,0.015
2.848,0.01
2.85,0.005
2.852,0.005
2.854,0.005
2.856,0.005
2.858,0.005
2.86,0.005
2.862,0.01
2.864,0.01
2.866,0.01
2.868,0.005
2.87,0.005
2.872,0.005
2.874,0.005
2.876,0
2.878,0
2.88,-0.005
2.882,-0.01
2.884,-0.015
2.886,-0.025
2.888,-0.03
2.89,-0.04
2.892,-0.045
2.894,-0.05
2.896,-0.05
2.898,-0.045
2.9,-0.04
2.902,-0.035
2.904,-0.03
2.906,-0.025
2.908,-0.025
2.91,-0.025
2.912,-0.025
2.914,-0.025
2.916,-0.025
2.918,-0.03
2.92,-0.03
2.922,-0.03
2.924,-0.03
2.926,-0.025
2.928,-0.03
2.93,-0.03
2.932,-0.03
2.934,-0.03
2.936,-0.03
2.938,-0.035
2.94,-0.035
2.942,-0.035
2.944,-0.035
2.946,-0.035
2.948,-0.04
2.95,-0.04
2.952,-0.04
2.954,-0.035
2.956,-0.025
2.958,-0.01
2.96,0.015
2.962,0.04
2.964,0.07
2.966,0.09
2.968,0.105
2.97,0.105
2.972,0.09
2.974,0.06
2.976,0.02
2.978,-0.03
2.98,-0.085
2.982,-0.135
2.984,-0.175
2.986,-0.205
2.988,-0.22
2.99,-0.22
2.992,-0.21
2.994,-0.195
2.996,-0.175
2.998,-0.155
3,-0.14
3.002,-0.125
3.004,-0.115
3.006,-0.105
3.008,-0.095
3.01,-0.09
3.012,-0.08
3.014,-0.07
3.016,-0.06
3.018,-0.05
3.02,-0.045
3.022,-0.04
3.024,-0.04
3.026,-0.04
3.028,-0.045
3.03,-0.05
3.032,-0.055
3.034,-0.065
3.036,-0.065
3.038,-0.07
3.04,-0.065
3.042,-0.06
3.044,-0.05
3.046,-0.045
3.048,-0.035
3.05,-0.03
3.052,-0.025
3.054,-0.02
3.056,-0.025
3.058,-0.025
3.06,-0.025
3.062,-0.03
3.064,-0.03
3.066,-0.025
3.068,-0.025
3.07,-0.025
3.072,-0.025
3.074,-0.025
3.076,-0.025
3.078,-0.03
3.08,-0.03
3.082,-0.03
3.084,-0.03
3.086,-0.025
3.088,-0.02
3.09,-0.015
3.092,-0.01
3.094,-0.01
3.096,-0.01
3.098,-0.01
3.1,-0.015
3.102,-0.015
3.104,-0.015
3.106,-0.01
3.108,-0.01
3.11,-0.005
3.112,0
3.114,0
3.116,0
3.118,-0.005
3.12,-0.01
3.122,-0.015
3.124,-0.015
3.126,-0.015
3.128,-0.01
3.13,-0.005
3.132,0.005
3.134,0.015
3.136,0.02
3.138,0.02
3.14,0.02
3.142,0.015
3.144,0.01
3.146,0.005
3.148,0.005
3.15,0.005
3.152,0.01
3.154,0.015
3.156,0.02
3.158,0.025
3.16,0.025
3.162,0.02
3.164,0.015
3.166,0.01
3.168,0.005
3.17,0.005
3.172,0.005
3.174,0.015
3.176,0.025
3.178,0.035
3.18,0.045
3.182,0.05
3.184,0.055
3.186,0.05
3.188,0.05
3.19,0.045
3.192,0.045
3.194,0.045
3.196,0.055
3.198,0.065
3.2,0.085
3.202,0.1
3.204,0.115
3.206,0.125
3.208,0.13
3.21,0.13
3.212,0.13
3.214,0.125
3.216,0.12
3.218,0.12
3.22,0.125
3.222,0.13
3.224,0.14
3.226,0.155
3.228,0.165
3.23,0.175
3.232,0.18
3.234,0.185
3.236,0.185
3.238,0.19
3.24,0.19
3.242,0.195
3.244,0.2
3.246,0.21
3.248,0.22
3.25,0.23
3.252,0.235
3.254,0.24
3.256,0.245
3.258,0.245
3.26,0.245
3.262,0.245
3.264,0.24
3.266,0.245
3.268,0.245
3.27,0.245
3.272,0.25
3.274,0.25
3.276,0.25
3.278,0.245
3.28,0.235
3.282,0.225
3.284,0.215
3.286,0.21
3.288,0.2
3.29,0.2
3.292,0.2
3.294,0.2
3.296,0.2
3.298,0.2
3.3,0.2
3.302,0.195
3.304,0.185
3.306,0.17
3.308,0.155
3.31,0.14
3.312,0.125
3.314,0.11
3.316,0.1
3.318,0.085
3.32,0.075
3.322,0.06
3.324,0.05
3.326,0.035
3.328,0.025
3.33,0.015
3.332,0.01
3.334,0.005
3.336,0.005
3.338,0.005
3.34,0.005
3.342,0.005
3.344,0.005
3.346,0
3.348,0
3.35,-0.005
3.352,-0.005
3.354,-0.01
3.356,-0.015
3.358,-0.015
3.36,-0.02
3.362,-0.03
3.364,-0.035
3.366,-0.04
3.368,-0.04
3.37,-0.04
3.372,-0.04
3.374,-0.03
3.376,-0.025
3.378,-0.02
3.38,-0.015
3.382,-0.01
3.384,-0.015
3.386,-0.02
3.388,-0.03
3.39,-0.035
3.392,-0.04
3.394,-0.04
3.396,-0.04
3.398,-0.035
3.4,-0.03
3.402,-0.025
3.404,-0.025
3.406,-0.03
3.408,-0.035
3.41,-0.04
3.412,-0.045
3.414,-0.05
3.416,-0.045
3.418,-0.04
3.42,-0.03
3.422,-0.025
3.424,-0.015
3.426,-0.015
3.428,-0.015
3.43,-0.025
3.432,-0.03
3.434,-0.04
3.436,-0.045
3.438,-0.05
3.44,-0.045
3.442,-0.04
3.444,-0.03
3.446,-0.025
3.448,-0.015
3.45,-0.01
3.452,-0.005
3.454,-0.005
3.456,-0.01
3.458,-0.015
3.46,-0.02
3.462,-0.02
3.464,-0.025
3.466,-0.025
3.468,-0.03
3.47,-0.03
3.472,-0.03
3.474,-0.03
3.476,-0.03
3.478,-0.025
3.48,-0.025
3.482,-0.025
3.484,-0.02
3.486,-0.02
3.488,-0.02
3.49,-0.02
3.492,-0.025
3.494,-0.025
3.496,-0.025
3.498,-0.03
3.5,-0.03
3.502,-0.03
3.504,-0.025
3.506,-0.025
3.508,-0.025
3.51,-0.02
3.512,-0.02
3.514,-0.015
3.516,-0.015
3.518,-0.01
3.52,-0.01
3.522,-0.01
3.524,-0.01
3.526,-0.01
3.528,-0.015
3.53,-0.02
3.532,-0.025
3.534,-0.035
3.536,-0.035
3.538,-0.04
3.54,-0.04
3.542,-0.04
3.544,-0.04
3.546,-0.035
3.548,-0.035
3.55,-0.03
3.552,-0.03
3.554,-0.03
3.556,-0.03
3.558,-0.03
3.56,-0.03
3.562,-0.03
3.564,-0.03
3.566,-0.03
3.568,-0.025
3.57,-0.025
3.572,-0.02
3.574,-0.02
3.576,-0.02
3.578,-0.015
3.58,-0.015
3.582,-0.015
3.584,-0.015
3.586,-0.015
3.588,-0.015
3.59,-0.015
3.592,-0.015
3.594,-0.015
3.596,-0.015
3.598,-0.015
3.6,-0.015
3.602,-0.02
3.604,-0.02
3.606,-0.025
3.608,-0.025
3.61,-0.03
3.612,-0.035
3.614,-0.035
3.616,-0.035
3.618,-0.035
3.62,-0.03
3.622,-0.025
3.624,-0.02
3.626,-0.015
3.628,-0.015
3.63,-0.015
3.632,-0.02
3.634,-0.025
3.636,-0.035
3.638,-0.04
3.64,-0.045
3.642,-0.045
3.644,-0.04
3.646,-0.035
3.648,-0.03
3.65,-0.02
3.652,-0.015
3.654,-0.015
3.656,-0.015
3.658,-0.02
3.66,-0.025
3.662,-0.03
3.664,-0.035
3.666,-0.04
3.668,-0.035
3.67,-0.035
3.672,-0.03
3.674,-0.02
3.676,-0.02
3.678,-0.02
3.68,-0.02
3.682,-0.025
3.684,-0.03
3.686,-0.035
3.688,-0.04
3.69,-0.04
3.692,-0.035
3.694,-0.03
3.696,-0.025
3.698,-0.02
3.7,-0.02
3.702,-0.02
3.704,-0.025
3.706,-0.03
3.708,-0.04
3.71,-0.045
3.712,-0.05
3.714,-0.05
3.716,-0.045
3.718,-0.035
3.72,-0.03
3.722,-0.02
3.724,-0.015
3.726,-0.01
3.728,-0.01
3.73,-0.015
3.732,-0.02
3.734,-0.025
3.736,-0.025
3.738,-0.03
3.74,-0.03
3.742,-0.03
3.744,-0.03
3.746,-0.025
3.748,-0.025
3.75,-0.025
3.752,-0.03
3.754,-0.03
3.756,-0.035
3.758,-0.04
3.76,-0.04
3.762,-0.045
3.764,-0.045
3.766,-0.04
3.768,-0.04
3.77,-0.035
3.772,-0.03
3.774,-0.025
3.776,-0.025
3.778,-0.02
3.78,-0.02
3.782,-0.02
3.784,-0.025
3.786,-0.03
3.788,-0.035
3.79,-0.04
3.792,-0.045
3.794,-0.045
3.796,-0.045
3.798,-0.045
3.8,-0.04
3.802,-0.035
3.804,-0.03
3.806,-0.025
3.808,-0.025
3.81,-0.025
3.812,-0.025
3.814,-0.025
3.816,-0.025
3.818,-0.03
3.82,-0.03
3.822,-0.03
3.824,-0.03
3.826,-0.025
3.828,-0.02
3.83,-0.02
3.832,-0.015
3.834,-0.015
3.836,-0.015
3.838,-0.015
3.84,-0.02
3.842,-0.02
3.844,-0.02
3.846,-0.02
3.848,-0.02
3.85,-0.015
3.852,-0.015
3.854,-0.01
3.856,-0.005
3.858,0.005
3.86,0.01
3.862,0.015
3.864,0.02
3.866,0.025
3.868,0.03
3.87,0.03
3.872,0.035
3.874,0.035
3.876,0.035
3.878,0.035
3.88,0.035
3.882,0.035
3.884,0.035
3.886,0.03
3.888,0.025
3.89,0.02
3.892,0.01
3.894,0
3.896,-0.01
3.898,-0.025
3.9,-0.035
3.902,-0.045
3.904,-0.05
3.906,-0.055
3.908,-0.055
3.91,-0.05
3.912,-0.045
3.914,-0.04
3.916,-0.035
3.918,-0.035
3.92,-0.03
3.922,-0.035
3.924,-0.04
3.926,-0.04
3.928,-0.045
3.93,-0.05
3.932,-0.05
3.934,-0.05
3.936,-0.05
3.938,-0.045
3.94,-0.045
3.942,-0.04
3.944,-0.035
3.946,-0.035
3.948,-0.035
3.95,-0.035
3.952,-0.035
3.954,-0.035
3.956,-0.035
3.958,-0.035
3.96,-0.035
3.962,-0.035
3.964,-0.035
3.966,-0.03
3.968,-0.025
3.97,-0.015
3.972,-0.01
3.974,0
3.976,0.01
3.978,0.025
3.98,0.035
3.982,0.045
3.984,0.055
3.986,0.065
3.988,0.075
3.99,0.075
3.992,0.07
3.994,0.05
3.996,0.025
3.998,-0.015
4,-0.06
4.002,-0.11
4.004,-0.16
4.006,-0.2
4.008,-0.23
4.01,-0.245
4.012,-0.245
4.014,-0.23
4.016,-0.205
4.018,-0.17
4.02,-0.14
4.022,-0.11
4.024,-0.085
4.026,-0.075
4.028,-0.065
4.03,-0.065
4.032,-0.07
4.034,-0.075
4.036,-0.075
4.038,-0.075
4.04,-0.07
4.042,-0.06
4.044,-0.05
4.046,-0.04
4.048,-0.03
4.05,-0.02
4.052,-0.015
4.054,-0.015
4.056,-0.015
4.058,-0.02
4.06,-0.02
4.062,-0.025
4.064,-0.025
4.066,-0.025
4.068,-0.025
4.07,-0.025
4.072,-0.025
4.074,-0.025
4.076,-0.02
4.078,-0.02
4.08,-0.02
4.082,-0.015
4.084,-0.015
4.086,-0.015
4.088,-0.015
4.09,-0.015
4.092,-0.015
4.094,-0.02
4.096,-0.02
4.098,-0.02
4.1,-0.025
4.102,-0.025
4.104,-0.02
4.106,-0.02
4.108,-0.015
4.11,-0.015
4.112,-0.01
4.114,-0.01
4.116,-0.01
4.118,-0.015
4.12,-0.015
4.122,-0.025
4.124,-0.025
4.126,-0.03
4.128,-0.03
4.13,-0.03
4.132,-0.02
4.134,-0.015
4.136,-0.01
4.138,0
4.14,0
4.142,0.005
4.144,0
4.146,0
4.148,0
4.15,-0.005
4.152,0
4.154,0.005
4.156,0.015
4.158,0.025
4.16,0.035
4.162,0.04
4.164,0.04
4.166,0.04
4.168,0.03
4.17,0.02
4.172,0.01
4.174,0
4.176,-0.005
4.178,0
4.18,0.005
4.182,0.015
4.184,0.025
4.186,0.035
4.188,0.045
4.19,0.05
4.192,0.05
4.194,0.045
4.196,0.045
4.198,0.045
4.2,0.045
4.202,0.05
4.204,0.055
4.206,0.06
4.208,0.065
4.21,0.07
4.212,0.07
4.214,0.07
4.216,0.07
4.218,0.065
4.22,0.07
4.222,0.075
4.224,0.085
4.226,0.1
4.228,0.115
4.23,0.125
4.232,0.135
4.234,0.14
4.236,0.14
4.238,0.14
4.24,0.14
4.242,0.145
4.244,0.15
4.246,0.16
4.248,0.17
4.25,0.185
4.252,0.195
4.254,0.205
4.256,0.21
4.258,0.21
4.26,0.205
4.262,0.205
4.264,0.2
4.266,0.205
4.268,0.21
4.27,0.215
4.272,0.225
4.274,0.235
4.276,0.245
4.278,0.25
4.28,0.245
4.282,0.24
4.284,0.235
4.286,0.225
4.288,0.22
4.29,0.22
4.292,0.22
4.294,0.23
4.296,0.24
4.298,0.25
4.3,0.255
4.302,0.26
4.304,0.255
4.306,0.245
4.308,0.235
4.31,0.22
4.312,0.2
4.314,0.185
4.316,0.175
4.318,0.165
4.32,0.155
4.322,0.15
4.324,0.145
4.326,0.14
4.328,0.135
4.33,0.13
4.332,0.125
4.334,0.115
4.336,0.105
4.338,0.095
4.34,0.085
4.342,0.075
4.344,0.065
4.346,0.055
4.348,0.05
4.35,0.04
4.352,0.035
4.354,0.035
4.356,0.03
4.358,0.03
4.36,0.03
4.362,0.025
4.364,0.02
4.366,0.01
4.368,0
4.37,-0.01
4.372,-0.025
4.374,-0.035
4.376,-0.045
4.378,-0.05
4.38,-0.055
4.382,-0.055
4.384,-0.05
4.386,-0.045
4.388,-0.045
4.39,-0.04
4.392,-0.035
4.394,-0.03
4.396,-0.025
4.398,-0.02
4.4,-0.02
4.402,-0.02
4.404,-0.02
4.406,-0.02
4.408,-0.025
4.41,-0.035
4.412,-0.04
4.414,-0.05
4.416,-0.055
4.418,-0.055
4.42,-0.055
4.422,-0.045
4.424,-0.04
4.426,-0.03
4.428,-0.02
4.43,-0.015
4.432,-0.015
4.434,-0.015
4.436,-0.02
4.438,-0.02
4.44,-0.02
4.442,-0.02
4.444,-0.015
4.446,-0.005
4.448,0
4.45,0.005
4.452,0.005
4.454,0
4.456,-0.005
4.458,-0.015
4.46,-0.025
4.462,-0.03
4.464,-0.03
4.466,-0.03
4.468,-0.03
4.47,-0.025
4.472,-0.025
4.474,-0.02
4.476,-0.025
4.478,-0.025
4.48,-0.03
4.482,-0.03
4.484,-0.03
4.486,-0.025
4.488,-0.02
4.49,-0.01
4.492,-0.005
4.494,-0.005
4.496,-0.005
4.498,-0.01
4.5,-0.015
4.502,-0.025
4.504,-0.03
4.506,-0.03
4.508,-0.025
4.51,-0.02
4.512,-0.01
4.514,-0.005
4.516,0
4.518,0
4.52,-0.005
4.522,-0.01
4.524,-0.02
4.526,-0.03
4.528,-0.035
4.53,-0.035
4.532,-0.035
4.534,-0.03
4.536,-0.025
4.538,-0.025
4.54,-0.025
4.542,-0.025
4.544,-0.025
4.546,-0.025
4.548,-0.025
4.55,-0.02
4.552,-0.015
4.554,-0.01
4.556,-0.005
4.558,-0.005
4.56,-0.005
4.562,-0.01
4.564,-0.02
4.566,-0.03
4.568,-0.045
4.57,-0.055
4.572,-0.06
4.574,-0.06
4.576,-0.055
4.578,-0.045
4.58,-0.035
4.582,-0.03
4.584,-0.02
4.586,-0.02
4.588,-0.02
4.59,-0.025
4.592,-0.035
4.594,-0.045
4.596,-0.05
4.598,-0.06
4.6,-0.06
4.602,-0.055
4.604,-0.05
4.606,-0.045
4.608,-0.04
4.61,-0.035
4.612,-0.035
4.614,-0.035
4.616,-0.04
4.618,-0.045
4.62,-0.055
4.622,-0.06
4.624,-0.06
4.626,-0.06
4.628,-0.06
4.63,-0.055
4.632,-0.05
4.634,-0.045
4.636,-0.045
4.638,-0.045
4.64,-0.05
4.642,-0.055
4.644,-0.06
4.646,-0.06
4.648,-0.06
4.65,-0.055
4.652,-0.05
4.654,-0.045
4.656,-0.035
4.658,-0.03
4.66,-0.03
4.662,-0.03
4.664,-0.035
4.666,-0.04
4.668,-0.045
4.67,-0.05
4.672,-0.05
4.674,-0.045
4.676,-0.045
4.678,-0.04
4.68,-0.04
4.682,-0.04
4.684,-0.04
4.686,-0.045
4.688,-0.05
4.69,-0.05
4.692,-0.05
4.694,-0.045
4.696,-0.04
4.698,-0.035
4.7,-0.025
4.702,-0.025
4.704,-0.025
4.706,-0.035
4.708,-0.045
4.71,-0.055
4.712,-0.07
4.714,-0.075
4.716,-0.08
4.718,-0.08
4.72,-0.07
4.722,-0.06
4.724,-0.045
4.726,-0.035
4.728,-0.025
4.73,-0.025
4.732,-0.03
4.734,-0.04
4.736,-0.05
4.738,-0.06
4.74,-0.07
4.742,-0.07
4.744,-0.07
4.746,-0.065
4.748,-0.055
4.75,-0.045
4.752,-0.04
4.754,-0.035
4.756,-0.035
4.758,-0.035
4.76,-0.04
4.762,-0.045
4.764,-0.045
4.766,-0.045
4.768,-0.045
4.77,-0.045
4.772,-0.04
4.774,-0.04
4.776,-0.04
4.778,-0.04
4.78,-0.045
4.782,-0.05
4.784,-0.055
4.786,-0.06
4.788,-0.06
4.79,-0.06
4.792,-0.06
4.794,-0.055
4.796,-0.05
4.798,-0.05
4.8,-0.045
4.802,-0.045
4.804,-0.045
4.806,-0.045
4.808,-0.045
4.81,-0.045
4.812,-0.045
4.814,-0.045
4.816,-0.045
4.818,-0.04
4.82,-0.04
4.822,-0.04
4.824,-0.035
4.826,-0.035
4.828,-0.04
4.83,-0.04
4.832,-0.045
4.834,-0.045
4.836,-0.05
4.838,-0.055
4.84,-0.055
4.842,-0.055
4.844,-0.05
4.846,-0.045
4.848,-0.04
4.85,-0.035
4.852,-0.03
4.854,-0.025
4.856,-0.025
4.858,-0.02
4.86,-0.025
4.862,-0.025
4.864,-0.03
4.866,-0.035
4.868,-0.045
4.87,-0.05
4.872,-0.055
4.874,-0.06
4.876,-0.06
4.878,-0.06
4.88,-0.055
4.882,-0.05
4.884,-0.045
4.886,-0.04
4.888,-0.035
4.89,-0.025
4.892,-0.025
4.894,-0.02
4.896,-0.02
4.898,-0.025
4.9,-0.025
4.902,-0.03
4.904,-0.03
4.906,-0.03
4.908,-0.03
4.91,-0.03
4.912,-0.025
4.914,-0.02
4.916,-0.015
4.918,-0.01
4.92,-0.01
4.922,-0.01
4.924,-0.01
4.926,-0.01
4.928,-0.01
4.93,-0.015
4.932,-0.015
4.934,-0.01
4.936,-0.01
4.938,-0.005
4.94,0
4.942,0.01
4.944,0.01
4.946,0.015
4.948,0.015
4.95,0.01
4.952,0.005
4.954,-0.005
4.956,-0.01
4.958,-0.015
4.96,-0.02
4.962,-0.02
4.964,-0.02
4.966,-0.02
4.968,-0.02
4.97,-0.025
4.972,-0.03
4.974,-0.035
4.976,-0.04
4.978,-0.045
4.98,-0.05
4.982,-0.05
4.984,-0.045
4.986,-0.045
4.988,-0.04
4.99,-0.035
4.992,-0.035
4.994,-0.035
4.996,-0.035
4.998,-0.04
5,-0.04
5.002,-0.04
5.004,-0.04
5.006,-0.04
5.008,-0.035
5.01,-0.03
5.012,-0.03
5.014,-0.03
5.016,-0.03
5.018,-0.035
5.02,-0.04
5.022,-0.04
5.024,-0.045
5.026,-0.045
5.028,-0.045
5.03,-0.045
5.032,-0.045
5.034,-0.04
5.036,-0.035
5.038,-0.03
5.04,-0.02
5.042,-0.01
5.044,0.005
5.046,0.025
5.048,0.045
5.05,0.065
5.052,0.085
5.054,0.1
5.056,0.105
5.058,0.1
5.06,0.085
5.062,0.06
5.064,0.025
5.066,-0.015
5.068,-0.055
5.07,-0.1
5.072,-0.135
5.074,-0.16
5.076,-0.175
5.078,-0.18
5.08,-0.18
5.082,-0.165
5.084,-0.15
5.086,-0.135
5.088,-0.115
5.09,-0.1
5.092,-0.085
5.094,-0.07
5.096,-0.06
5.098,-0.05
5.1,-0.045
5.102,-0.035
5.104,-0.03
5.106,-0.025
5.108,-0.025
5.11,-0.025
5.112,-0.025
5.114,-0.035
5.116,-0.04
5.118,-0.045
5.12,-0.05
5.122,-0.05
5.124,-0.05
5.126,-0.045
5.128,-0.035
5.13,-0.03
5.132,-0.02
5.134,-0.015
5.136,-0.01
5.138,-0.01
5.14,-0.01
5.142,-0.015
5.144,-0.02
5.146,-0.025
5.148,-0.025
5.15,-0.025
5.152,-0.02
5.154,-0.01
5.156,0
5.158,0.01
5.16,0.02
5.162,0.03
5.164,0.035
5.166,0.035
5.168,0.03
5.17,0.02
5.172,0.01
5.174,0
5.176,-0.01
5.178,-0.015
5.18,-0.015
5.182,-0.015
5.184,-0.01
5.186,0
5.188,0.005
5.19,0.01
5.192,0.015
5.194,0.015
5.196,0.015
5.198,0.01
5.2,0.005
5.202,0
5.204,0
5.206,0
5.208,0.005
5.21,0.01
5.212,0.015
5.214,0.02
5.216,0.025
5.218,0.025
5.22,0.02
5.222,0.015
5.224,0.005
5.226,0
5.228,-0.005
5.23,-0.005
5.232,-0.005
5.234,0.005
5.236,0.01
5.238,0.02
5.24,0.03
5.242,0.035
5.244,0.04
5.246,0.045
5.248,0.045
5.25,0.045
5.252,0.045
5.254,0.045
5.256,0.045
5.258,0.05
5.26,0.05
5.262,0.055
5.264,0.055
5.266,0.055
5.268,0.055
5.27,0.06
5.272,0.06
5.274,0.07
5.276,0.075
5.278,0.085
5.28,0.1
5.282,0.11
5.284,0.115
5.286,0.12
5.288,0.12
5.29,0.12
5.292,0.115
5.294,0.11
5.296,0.105
5.298,0.105
5.3,0.11
5.302,0.115
5.304,0.12
5.306,0.13
5.308,0.14
5.31,0.15
5.312,0.16
5.314,0.17
5.316,0.18
5.318,0.185
5.32,0.195
5.322,0.2
5.324,0.205
5.326,0.21
5.328,0.21
5.33,0.21
5.332,0.21
5.334,0.21
5.336,0.21
5.338,0.21
5.34,0.215
5.342,0.22
5.344,0.225
5.346,0.23
5.348,0.24
5.35,0.245
5.352,0.245
5.354,0.25
5.356,0.255
5.358,0.255
5.36,0.255
5.362,0.255
5.364,0.26
5.366,0.255
5.368,0.255
5.37,0.25
5.372,0.245
5.374,0.24
5.376,0.23
5.378,0.225
5.38,0.21
5.382,0.2
5.384,0.19
5.386,0.18
5.388,0.17
5.39,0.155
5.392,0.15
5.394,0.14
5.396,0.13
5.398,0.125
5.4,0.12
5.402,0.115
5.404,0.11
5.406,0.105
5.408,0.095
5.41,0.085
5.412,0.07
5.414,0.06
5.416,0.045
5.418,0.035
5.42,0.025
5.422,0.02
5.424,0.015
5.426,0.01
5.428,0.01
5.43,0.005
5.432,0
5.434,-0.01
5.436,-0.02
5.438,-0.025
5.44,-0.035
5.442,-0.035
5.444,-0.04
5.446,-0.035
5.448,-0.03
5.45,-0.02
5.452,-0.015
5.454,-0.01
5.456,-0.005
5.458,-0.005
5.46,-0.005
5.462,-0.01
5.464,-0.015
5.466,-0.02
5.468,-0.025
5.47,-0.025
5.472,-0.03
5.474,-0.03
5.476,-0.035
5.478,-0.035
5.48,-0.04
5.482,-0.04
5.484,-0.045
5.486,-0.05
5.488,-0.055
5.49,-0.055
5.492,-0.055
5.494,-0.05
5.496,-0.045
5.498,-0.04
5.5,-0.035
5.502,-0.025
5.504,-0.02
5.506,-0.015
5.508,-0.015
5.51,-0.015
5.512,-0.02
5.514,-0.025
5.516,-0.035
5.518,-0.04
5.52,-0.045
5.522,-0.045
5.524,-0.045
5.526,-0.04
5.528,-0.03
5.53,-0.025
5.532,-0.02
5.534,-0.015
5.536,-0.015
5.538,-0.015
5.54,-0.02
5.542,-0.02
5.544,-0.025
5.546,-0.025
5.548,-0.025
5.55,-0.02
5.552,-0.015
5.554,-0.01
5.556,-0.01
5.558,-0.01
5.56,-0.01
5.562,-0.015
5.564,-0.02
5.566,-0.025
5.568,-0.03
5.57,-0.03
5.572,-0.03
5.574,-0.025
5.576,-0.02
5.578,-0.015
5.58,-0.01
5.582,-0.005
5.584,-0.005
5.586,-0.01
5.588,-0.015
5.59,-0.02
5.592,-0.03
5.594,-0.035
5.596,-0.04
5.598,-0.04
5.6,-0.04
5.602,-0.04
5.604,-0.04
5.606,-0.035
5.608,-0.03
5.61,-0.03
5.612,-0.03
5.614,-0.03
5.616,-0.03
5.618,-0.025
5.62,-0.025
5.622,-0.02
5.624,-0.02
5.626,-0.015
5.628,-0.01
5.63,-0.005
5.632,-0.005
5.634,-0.01
5.636,-0.015
5.638,-0.02
5.64,-0.03
5.642,-0.04
5.644,-0.05
5.646,-0.055
5.648,-0.055
5.65,-0.055
5.652,-0.055
5.654,-0.05
5.656,-0.045
5.658,-0.04
5.66,-0.035
5.662,-0.035
5.664,-0.035
5.666,-0.04
5.668,-0.04
5.67,-0.045
5.672,-0.045
5.674,-0.045
5.676,-0.045
5.678,-0.04
5.68,-0.04
5.682,-0.035
5.684,-0.03
5.686,-0.03
5.688,-0.03
5.69,-0.03
5.692,-0.03
5.694,-0.035
5.696,-0.035
5.698,-0.035
5.7,-0.03
5.702,-0.03
5.704,-0.03
5.706,-0.03
5.708,-0.03
5.71,-0.03
5.712,-0.03
5.714,-0.03
5.716,-0.03
5.718,-0.03
5.72,-0.03
5.722,-0.025
5.724,-0.025
5.726,-0.025
5.728,-0.03
5.73,-0.035
5.732,-0.04
5.734,-0.04
5.736,-0.045
5.738,-0.045
5.74,-0.045
5.742,-0.045
5.744,-0.04
5.746,-0.035
5.748,-0.03
5.75,-0.025
5.752,-0.02
5.754,-0.02
5.756,-0.02
5.758,-0.025
5.76,-0.025
5.762,-0.03
5.764,-0.035
5.766,-0.04
5.768,-0.05
5.77,-0.05
5.772,-0.055
5.774,-0.055
5.776,-0.05
5.778,-0.045
5.78,-0.035
5.782,-0.025
5.784,-0.015
5.786,-0.01
5.788,-0.005
5.79,-0.01
5.792,-0.015
5.794,-0.025
5.796,-0.035
5.798,-0.04
5.8,-0.045
5.802,-0.05
5.804,-0.05
5.806,-0.045
5.808,-0.04
5.81,-0.035
5.812,-0.035
5.814,-0.035
5.816,-0.035
5.818,-0.04
5.82,-0.04
5.822,-0.04
5.824,-0.04
5.826,-0.035
5.828,-0.03
5.83,-0.025
5.832,-0.02
5.834,-0.02
5.836,-0.025
5.838,-0.03
5.84,-0.035
5.842,-0.04
5.844,-0.045
5.846,-0.045
5.848,-0.045
5.85,-0.045
5.852,-0.045
5.854,-0.045
5.856,-0.045
5.858,-0.045
5.86,-0.045
5.862,-0.04
5.864,-0.04
5.866,-0.035
5.868,-0.03
5.87,-0.025
5.872,-0.02
5.874,-0.02
5.876,-0.02
5.878,-0.02
5.88,-0.025
5.882,-0.03
5.884,-0.035
5.886,-0.035
5.888,-0.035
5.89,-0.03
5.892,-0.025
5.894,-0.02
5.896,-0.02
5.898,-0.02
5.9,-0.02
5.902,-0.02
5.904,-0.025
5.906,-0.025
5.908,-0.025
5.91,-0.025
5.912,-0.02
5.914,-0.02
5.916,-0.015
5.918,-0.015
5.92,-0.015
5.922,-0.02
5.924,-0.02
5.926,-0.025
5.928,-0.025
5.93,-0.03
5.932,-0.03
5.934,-0.035
5.936,-0.035
5.938,-0.035
5.94,-0.035
5.942,-0.04
5.944,-0.04
5.946,-0.04
5.948,-0.035
5.95,-0.035
5.952,-0.03
5.954,-0.025
5.956,-0.02
5.958,-0.015
5.96,-0.01
5.962,-0.01
5.964,-0.01
5.966,-0.01
5.968,-0.015
5.97,-0.015
5.972,-0.015
5.974,-0.015
5.976,-0.015
5.978,-0.015
5.98,-0.015
5.982,-0.02
5.984,-0.025
5.986,-0.025
5.988,-0.03
5.99,-0.03
5.992,-0.03
5.994,-0.03
5.996,-0.025
5.998,-0.015
6,-0.01
6.002,-0.005
6.004,0
6.006,0.005
6.008,0
6.01,0
6.012,0
6.014,-0.005
6.016,-0.005
6.018,-0.005
6.02,-0.005
6.022,0
6.024,0.005
6.026,0.01
6.028,0.015
6.03,0.02
6.032,0.02
6.034,0.025
6.036,0.025
6.038,0.025
6.04,0.02
6.042,0.02
6.044,0.02
6.046,0.015
6.048,0.01
6.05,0.01
6.052,0.005
6.054,0.005
6.056,0
6.058,0
6.06,0
6.062,-0.005
6.064,-0.01
6.066,-0.015
6.068,-0.025
6.07,-0.035
6.072,-0.04
6.074,-0.045
6.076,-0.05
6.078,-0.05
6.08,-0.045
6.082,-0.035
6.084,-0.025
6.086,-0.015
6.088,-0.01
6.09,0
6.092,0
6.094,-0.005
6.096,-0.015
6.098,-0.025
6.1,-0.035
6.102,-0.045
6.104,-0.055
6.106,-0.055
6.108,-0.055
6.11,-0.055
6.112,-0.05
6.114,-0.05
6.116,-0.045
6.118,-0.045
6.12,-0.045
6.122,-0.05
6.124,-0.05
6.126,-0.045
6.128,-0.04
6.13,-0.03
6.132,-0.02
6.134,0
6.136,0.02
6.138,0.045
6.14,0.065
6.142,0.09
6.144,0.105
6.146,0.115
6.148,0.11
6.15,0.1
6.152,0.07
6.154,0.035
6.156,-0.01
6.158,-0.055
6.16,-0.1
6.162,-0.14
6.164,-0.165
6.166,-0.18
6.168,-0.185
6.17,-0.175
6.172,-0.16
6.174,-0.145
6.176,-0.125
6.178,-0.115
6.18,-0.105
6.182,-0.095
6.184,-0.09
6.186,-0.085
6.188,-0.075
6.19,-0.065
6.192,-0.055
6.194,-0.045
6.196,-0.035
6.198,-0.03
6.2,-0.03
6.202,-0.035
6.204,-0.045
6.206,-0.05
6.208,-0.055
6.21,-0.055
6.212,-0.055
6.214,-0.045
6.216,-0.035
6.218,-0.025
6.22,-0.015
6.222,-0.01
6.224,-0.01
6.226,-0.01
6.228,-0.015
6.23,-0.015
6.232,-0.015
6.234,-0.01
6.236,-0.005
6.238,0
6.24,0
6.242,0
6.244,-0.005
6.246,-0.01
6.248,-0.02
6.25,-0.03
6.252,-0.035
6.254,-0.04
6.256,-0.035
6.258,-0.03
6.26,-0.02
6.262,-0.01
6.264,-0.005
6.266,0
6.268,-0.005
6.27,-0.015
6.272,-0.03
6.274,-0.045
6.276,-0.055
6.278,-0.06
6.28,-0.055
6.282,-0.045
6.284,-0.035
6.286,-0.02
6.288,0
6.29,0.01
6.292,0.02
6.294,0.025
6.296,0.025
6.298,0.02
6.3,0.02
6.302,0.015
6.304,0.01
6.306,0.01
6.308,0.005
6.31,0.005
6.312,0
6.314,0
6.316,-0.005
6.318,-0.005
6.32,-0.01
6.322,-0.01
6.324,-0.01
6.326,-0.01
6.328,-0.005
6.33,0
6.332,0.005
6.334,0.01
6.336,0.02
6.338,0.025
6.34,0.03
6.342,0.04
6.344,0.045
6.346,0.045
6.348,0.05
6.35,0.05
6.352,0.045
6.354,0.045
6.356,0.045
6.358,0.045
6.36,0.045
6.362,0.05
6.364,0.055
6.366,0.065
6.368,0.07
6.37,0.08
6.372,0.085
6.374,0.085
6.376,0.085
6.378,0.085
6.38,0.085
6.382,0.09
6.384,0.095
6.386,0.105
6.388,0.12
6.39,0.13
6.392,0.145
6.394,0.155
6.396,0.155
6.398,0.155
6.4,0.155
6.402,0.15
6.404,0.145
6.406,0.15
6.408,0.155
6.41,0.165
6.412,0.175
6.414,0.19
6.416,0.2
6.418,0.205
6.42,0.205
6.422,0.2
6.424,0.195
6.426,0.185
6.428,0.185
6.43,0.185
6.432,0.19
6.434,0.2
6.436,0.215
6.438,0.23
6.44,0.245
6.442,0.25
6.444,0.255
6.446,0.25
6.448,0.245
6.45,0.24
6.452,0.235
6.454,0.235
6.456,0.235
6.458,0.235
6.46,0.235
6.462,0.23
6.464,0.225
6.466,0.215
6.468,0.205
6.47,0.19
6.472,0.18
6.474,0.17
6.476,0.165
6.478,0.165
6.48,0.165
6.482,0.165
6.484,0.165
6.486,0.16
6.488,0.15
6.49,0.135
6.492,0.125
6.494,0.11
6.496,0.095
6.498,0.08
6.5,0.075
6.502,0.065
6.504,0.065
6.506,0.06
6.508,0.055
6.51,0.05
6.512,0.045
6.514,0.035
6.516,0.025
6.518,0.015
6.52,0.005
6.522,-0.005
6.524,-0.01
6.526,-0.015
6.528,-0.015
6.53,-0.02
6.532,-0.015
6.534,-0.02
6.536,-0.02
6.538,-0.025
6.54,-0.025
6.542,-0.035
6.544,-0.04
6.546,-0.045
6.548,-0.045
6.55,-0.05
6.552,-0.05
6.554,-0.05
6.556,-0.05
6.558,-0.045
6.56,-0.045
6.562,-0.045
6.564,-0.045
6.566,-0.045
6.568,-0.045
6.57,-0.045
6.572,-0.04
6.574,-0.035
6.576,-0.035
6.578,-0.03
6.58,-0.03
6.582,-0.03
6.584,-0.035
6.586,-0.035
6.588,-0.04
6.59,-0.04
6.592,-0.035
6.594,-0.03
6.596,-0.025
6.598,-0.015
6.6,-0.005
6.602,0
6.604,0.005
6.606,0.005
6.608,0
6.61,-0.005
6.612,-0.015
6.614,-0.02
6.616,-0.025
6.618,-0.025
6.62,-0.03
6.622,-0.025
6.624,-0.025
6.626,-0.025
6.628,-0.025
6.63,-0.025
6.632,-0.025
6.634,-0.03
6.636,-0.03
6.638,-0.03
6.64,-0.025
6.642,-0.025
6.644,-0.025
6.646,-0.02
6.648,-0.025
6.65,-0.025
6.652,-0.03
6.654,-0.035
6.656,-0.04
6.658,-0.045
6.66,-0.05
6.662,-0.045
6.664,-0.04
6.666,-0.035
6.668,-0.025
6.67,-0.02
6.672,-0.015
6.674,-0.01
6.676,-0.01
6.678,-0.015
6.68,-0.015
6.682,-0.02
6.684,-0.02
6.686,-0.02
6.688,-0.025
6.69,-0.025
6.692,-0.025
6.694,-0.025
6.696,-0.03
6.698,-0.03
6.7,-0.035
6.702,-0.035
6.704,-0.035
6.706,-0.035
6.708,-0.035
6.71,-0.03
6.712,-0.03
6.714,-0.03
6.716,-0.03
6.718,-0.03
6.72,-0.03
6.722,-0.03
6.724,-0.03
6.726,-0.03
6.728,-0.025
6.73,-0.025
6.732,-0.02
6.734,-0.02
6.736,-0.025
6.738,-0.025
6.74,-0.03
6.742,-0.035
6.744,-0.045
6.746,-0.045
6.748,-0.05
6.75,-0.045
6.752,-0.045
6.754,-0.045
6.756,-0.04
6.758,-0.04
6.76,-0.035
6.762,-0.035
6.764,-0.03
6.766,-0.03
6.768,-0.025
6.77,-0.015
6.772,-0.01
6.774,-0.005
6.776,0
6.778,-0.005
6.78,-0.005
6.782,-0.015
6.784,-0.02
6.786,-0.025
6.788,-0.03
6.79,-0.035
6.792,-0.035
6.794,-0.03
6.796,-0.03
6.798,-0.025
6.8,-0.025
6.802,-0.025
6.804,-0.025
6.806,-0.03
6.808,-0.035
6.81,-0.035
6.812,-0.035
6.814,-0.035
6.816,-0.03
6.818,-0.03
6.82,-0.025
6.822,-0.025
6.824,-0.02
6.826,-0.02
6.828,-0.02
6.83,-0.02
6.832,-0.015
6.834,-0.01
6.836,-0.01
6.838,-0.005
6.84,-0.005
6.842,-0.01
6.844,-0.01
6.846,-0.015
6.848,-0.02
6.85,-0.02
6.852,-0.02
6.854,-0.02
6.856,-0.015
6.858,-0.01
6.86,-0.01
6.862,-0.01
6.864,-0.02
6.866,-0.03
6.868,-0.045
6.87,-0.06
6.872,-0.075
6.874,-0.085
6.876,-0.09
6.878,-0.085
6.88,-0.08
6.882,-0.07
6.884,-0.065
6.886,-0.055
6.888,-0.05
6.89,-0.05
6.892,-0.05
6.894,-0.05
6.896,-0.05
6.898,-0.055
6.9,-0.055
6.902,-0.05
6.904,-0.05
6.906,-0.045
6.908,-0.045
6.91,-0.04
6.912,-0.04
6.914,-0.04
6.916,-0.04
6.918,-0.04
6.92,-0.035
6.922,-0.035
6.924,-0.035
6.926,-0.035
6.928,-0.04
6.93,-0.04
6.932,-0.04
6.934,-0.04
6.936,-0.04
6.938,-0.035
6.94,-0.03
6.942,-0.025
6.944,-0.02
6.946,-0.01
6.948,-0.01
6.95,-0.005
6.952,-0.01
6.954,-0.01
6.956,-0.015
6.958,-0.02
6.96,-0.025
6.962,-0.025
6.964,-0.03
6.966,-0.03
6.968,-0.035
6.97,-0.035
6.972,-0.035
6.974,-0.04
6.976,-0.035
6.978,-0.035
6.98,-0.035
6.982,-0.03
6.984,-0.025
6.986,-0.025
6.988,-0.025
6.99,-0.025
6.992,-0.03
6.994,-0.035
6.996,-0.04
6.998,-0.045
7,-0.045
7.002,-0.045
7.004,-0.045
7.006,-0.045
7.008,-0.045
7.01,-0.045
7.012,-0.045
7.014,-0.045
7.016,-0.045
7.018,-0.045
7.02,-0.045
7.022,-0.04
7.024,-0.04
7.026,-0.035
7.028,-0.03
7.03,-0.025
7.032,-0.025
7.034,-0.02
7.036,-0.02
7.038,-0.02
7.04,-0.025
7.042,-0.025
7.044,-0.025
7.046,-0.025
7.048,-0.025
7.05,-0.02
7.052,-0.02
7.054,-0.02
7.056,-0.025
7.058,-0.025
7.06,-0.03
7.062,-0.03
7.064,-0.03
7.066,-0.03
7.068,-0.025
7.07,-0.025
7.072,-0.02
7.074,-0.015
7.076,-0.01
7.078,-0.01
7.08,-0.01
7.082,-0.01
7.084,-0.015
7.086,-0.025
7.088,-0.03
7.09,-0.035
7.092,-0.04
7.094,-0.04
7.096,-0.04
7.098,-0.045
7.1,-0.045
7.102,-0.045
7.104,-0.045
7.106,-0.045
7.108,-0.045
7.11,-0.04
7.112,-0.03
7.114,-0.015
7.116,-0.005
7.118,0.01
7.12,0.025
7.122,0.03
7.124,0.04
7.126,0.04
7.128,0.04
7.13,0.04
7.132,0.035
7.134,0.03
7.136,0.025
7.138,0.02
7.14,0.02
7.142,0.01
7.144,0.005
7.146,0
7.148,-0.01
7.15,-0.015
7.152,-0.02
7.154,-0.02
7.156,-0.02
7.158,-0.015
7.16,-0.01
7.162,-0.005
7.164,-0.005
7.166,-0.005
7.168,-0.01
7.17,-0.015
7.172,-0.02
7.174,-0.03
7.176,-0.035
7.178,-0.045
7.18,-0.045
7.182,-0.05
7.184,-0.05
7.186,-0.05
7.188,-0.05
7.19,-0.045
7.192,-0.045
7.194,-0.045
7.196,-0.045
7.198,-0.045
7.2,-0.04
7.202,-0.04
7.204,-0.035
7.206,-0.035
7.208,-0.035
7.21,-0.035
7.212,-0.035
7.214,-0.035
7.216,-0.04
7.218,-0.045
7.22,-0.045
7.222,-0.05
7.224,-0.055
7.226,-0.055
7.228,-0.06
7.23,-0.055
7.232,-0.05
7.234,-0.045
7.236,-0.03
7.238,-0.01
7.24,0.015
7.242,0.04
7.244,0.07
7.246,0.09
7.248,0.1
7.25,0.1
7.252,0.085
7.254,0.055
7.256,0.015
7.258,-0.035
7.26,-0.09
7.262,-0.14
7.264,-0.18
7.266,-0.21
7.268,-0.225
7.27,-0.225
7.272,-0.215
7.274,-0.195
7.276,-0.17
7.278,-0.145
7.28,-0.12
7.282,-0.1
7.284,-0.09
7.286,-0.08
7.288,-0.075
7.29,-0.075
7.292,-0.075
7.294,-0.075
7.296,-0.075
7.298,-0.07
7.3,-0.06
7.302,-0.055
7.304,-0.04
7.306,-0.03
7.308,-0.02
7.31,-0.015
7.312,-0.015
7.314,-0.015
7.316,-0.02
7.318,-0.03
7.32,-0.04
7.322,-0.045
7.324,-0.05
7.326,-0.05
7.328,-0.05
7.33,-0.045
7.332,-0.035
7.334,-0.025
7.336,-0.02
7.338,-0.015
7.34,-0.015
7.342,-0.02
7.344,-0.02
7.346,-0.025
7.348,-0.03
7.35,-0.035
7.352,-0.035
7.354,-0.03
7.356,-0.025
7.358,-0.015
7.36,-0.01
7.362,-0.005
7.364,0
7.366,0.005
7.368,0.005
7.37,0
7.372,-0.01
7.374,-0.015
7.376,-0.025
7.378,-0.03
7.38,-0.035
7.382,-0.035
7.384,-0.035
7.386,-0.03
7.388,-0.025
7.39,-0.02
7.392,-0.015
7.394,-0.01
7.396,-0.01
7.398,-0.01
7.4,-0.015
7.402,-0.015
7.404,-0.01
7.406,-0.005
7.408,0
7.41,0.015
7.412,0.025
7.414,0.035
7.416,0.04
7.418,0.04
7.42,0.035
7.422,0.025
7.424,0.015
7.426,0
7.428,-0.015
7.43,-0.02
7.432,-0.025
7.434,-0.02
7.436,-0.015
7.438,-0.005
7.44,0.005
7.442,0.015
7.444,0.02
7.446,0.03
7.448,0.03
7.45,0.035
7.452,0.035
7.454,0.04
7.456,0.05
7.458,0.055
7.46,0.065
7.462,0.075
7.464,0.08
7.466,0.085
7.468,0.085
7.47,0.085
7.472,0.08
7.474,0.075
7.476,0.075
7.478,0.075
7.48,0.075
7.482,0.08
7.484,0.09
7.486,0.1
7.488,0.11
7.49,0.12
7.492,0.13
7.494,0.135
7.496,0.135
7.498,0.135
7.5,0.135
7.502,0.135
7.504,0.13
7.506,0.13
7.508,0.135
7.51,0.14
7.512,0.15
7.514,0.165
7.516,0.18
7.518,0.195
7.52,0.21
7.522,0.225
7.524,0.235
7.526,0.24
7.528,0.24
7.53,0.235
7.532,0.23
7.534,0.225
7.536,0.225
7.538,0.225
7.54,0.225
7.542,0.23
7.544,0.24
7.546,0.245
7.548,0.25
7.55,0.255
7.552,0.255
7.554,0.25
7.556,0.25
7.558,0.245
7.56,0.245
7.562,0.24
7.564,0.24
7.566,0.235
7.568,0.235
7.57,0.23
7.572,0.22
7.574,0.21
7.576,0.205
7.578,0.195
7.58,0.185
7.582,0.18
7.584,0.175
7.586,0.165
7.588,0.16
7.59,0.145
7.592,0.135
7.594,0.115
7.596,0.1
7.598,0.085
7.6,0.075
7.602,0.07
7.604,0.07
7.606,0.075
7.608,0.08
7.61,0.085
7.612,0.08
7.614,0.075
7.616,0.06
7.618,0.045
7.62,0.025
7.622,0.005
7.624,-0.015
7.626,-0.025
7.628,-0.03
7.63,-0.035
7.632,-0.03
7.634,-0.025
7.636,-0.02
7.638,-0.015
7.64,-0.015
7.642,-0.02
7.644,-0.02
7.646,-0.025
7.648,-0.03
7.65,-0.035
7.652,-0.035
7.654,-0.035
7.656,-0.03
7.658,-0.025
7.66,-0.02
7.662,-0.015
7.664,-0.015
7.666,-0.015
7.668,-0.015
7.67,-0.02
7.672,-0.03
7.674,-0.04
7.676,-0.045
7.678,-0.05
7.68,-0.055
7.682,-0.055
7.684,-0.045
7.686,-0.04
7.688,-0.025
7.69,-0.015
7.692,-0.01
7.694,0
7.696,0
7.698,0
7.7,0
7.702,-0.005
7.704,-0.01
7.706,-0.015
7.708,-0.015
7.71,-0.015
7.712,-0.015
7.714,-0.015
7.716,-0.01
7.718,-0.01
7.72,-0.005
7.722,-0.005
7.724,0
7.726,0
7.728,-0.005
7.73,-0.005
7.732,-0.01
7.734,-0.02
7.736,-0.025
7.738,-0.03
7.74,-0.04
7.742,-0.04
7.744,-0.04
7.746,-0.04
7.748,-0.03
7.75,-0.025
7.752,-0.015
7.754,-0.005
7.756,0
7.758,0.005
7.76,0.005
7.762,0
7.764,-0.005
7.766,-0.015
7.768,-0.02
7.77,-0.025
7.772,-0.03
7.774,-0.03
7.776,-0.03
7.778,-0.03
7.78,-0.025
7.782,-0.02
7.784,-0.015
7.786,-0.01
7.788,-0.01
7.79,-0.01
7.792,-0.01
7.794,-0.015
7.796,-0.02
7.798,-0.025
7.8,-0.025
7.802,-0.03
7.804,-0.035
7.806,-0.035
7.808,-0.04
7.81,-0.04
7.812,-0.04
7.814,-0.035
7.816,-0.035
7.818,-0.03
7.82,-0.025
7.822,-0.025
7.824,-0.02
7.826,-0.015
7.828,-0.015
7.83,-0.015
7.832,-0.015
7.834,-0.015
7.836,-0.02
7.838,-0.03
7.84,-0.035
7.842,-0.04
7.844,-0.05
7.846,-0.05
7.848,-0.05
7.85,-0.05
7.852,-0.045
7.854,-0.04
7.856,-0.035
7.858,-0.03
7.86,-0.025
7.862,-0.025
7.864,-0.025
7.866,-0.03
7.868,-0.035
7.87,-0.04
7.872,-0.045
7.874,-0.045
7.876,-0.05
7.878,-0.05
7.88,-0.05
7.882,-0.045
7.884,-0.045
7.886,-0.045
7.888,-0.045
7.89,-0.045
7.892,-0.045
7.894,-0.045
7.896,-0.045
7.898,-0.04
7.9,-0.04
7.902,-0.035
7.904,-0.035
7.906,-0.035
7.908,-0.03
7.91,-0.03
7.912,-0.03
7.914,-0.025
7.916,-0.025
7.918,-0.02
7.92,-0.015
7.922,-0.01
7.924,-0.01
7.926,-0.015
7.928,-0.02
7.93,-0.03
7.932,-0.04
7.934,-0.045
7.936,-0.055
7.938,-0.055
7.94,-0.055
7.942,-0.045
7.944,-0.035
7.946,-0.025
7.948,-0.02
7.95,-0.015
7.952,-0.015
7.954,-0.02
7.956,-0.025
7.958,-0.03
7.96,-0.04
7.962,-0.04
7.964,-0.045
7.966,-0.045
7.968,-0.04
7.97,-0.04
7.972,-0.035
7.974,-0.035
7.976,-0.03
7.978,-0.03
7.98,-0.03
7.982,-0.03
7.984,-0.03
7.986,-0.03
7.988,-0.03
7.99,-0.035
7.992,-0.035
7.994,-0.04
7.996,-0.04
7.998,-0.04
8,-0.04
8.002,-0.035
8.004,-0.03
8.006,-0.025
8.008,-0.02
8.01,-0.015
8.012,-0.01
8.014,-0.015
8.016,-0.015
8.018,-0.02
8.02,-0.02
8.022,-0.02
8.024,-0.02
8.026,-0.015
8.028,-0.01
8.03,-0.005
8.032,-0.005
8.034,-0.005
8.036,-0.005
8.038,-0.01
8.04,-0.02
8.042,-0.025
8.044,-0.03
8.046,-0.03
8.048,-0.03
8.05,-0.03
8.052,-0.025
8.054,-0.025
8.056,-0.025
8.058,-0.025
8.06,-0.025
8.062,-0.03
8.064,-0.03
8.066,-0.03
8.068,-0.025
8.07,-0.02
8.072,-0.015
8.074,-0.01
8.076,-0.01
8.078,-0.01
8.08,-0.015
8.082,-0.02
8.084,-0.025
8.086,-0.025
8.088,-0.025
8.09,-0.025
8.092,-0.02
8.094,-0.015
8.096,-0.015
8.098,-0.015
8.1,-0.02
8.102,-0.03
8.104,-0.035
8.106,-0.045
8.108,-0.05
8.11,-0.05
8.112,-0.045
8.114,-0.04
8.116,-0.03
8.118,-0.025
8.12,-0.02
8.122,-0.02
8.124,-0.02
8.126,-0.025
8.128,-0.03
8.13,-0.035
8.132,-0.04
8.134,-0.045
8.136,-0.04
8.138,-0.04
8.14,-0.035
8.142,-0.035
8.144,-0.03
8.146,-0.03
8.148,-0.035
8.15,-0.035
8.152,-0.035
8.154,-0.035
8.156,-0.035
8.158,-0.03
8.16,-0.03
8.162,-0.025
8.164,-0.025
8.166,-0.025
8.168,-0.025
8.17,-0.025
8.172,-0.03
8.174,-0.025
8.176,-0.025
8.178,-0.015
8.18,-0.01
8.182,0
8.184,0.005
8.186,0.01
8.188,0.015
8.19,0.01
8.192,0.01
8.194,0.005
8.196,0
8.198,0
8.2,0
8.202,0.005
8.204,0.005
8.206,0.01
8.208,0.01
8.21,0.01
8.212,0.005
8.214,0
8.216,-0.005
8.218,-0.01
8.22,-0.01
8.222,-0.005
8.224,-0.005
8.226,0
8.228,0.005
8.23,0.005
8.232,0
8.234,-0.01
8.236,-0.02
8.238,-0.035
8.24,-0.045
8.242,-0.055
8.244,-0.06
8.246,-0.065
8.248,-0.065
8.25,-0.06
8.252,-0.06
8.254,-0.055
8.256,-0.055
8.258,-0.055
8.26,-0.055
8.262,-0.05
8.264,-0.05
8.266,-0.05
8.268,-0.045
8.27,-0.045
8.272,-0.04
8.274,-0.04
8.276,-0.04
8.278,-0.035
8.28,-0.035
8.282,-0.035
8.284,-0.03
8.286,-0.025
8.288,-0.02
8.29,-0.015
8.292,-0.01
8.294,-0.01
8.296,-0.015
8.298,-0.02
8.3,-0.03
8.302,-0.04
8.304,-0.05
8.306,-0.055
8.308,-0.05
8.31,-0.04
8.312,-0.025
8.314,0
8.316,0.025
8.318,0.05
8.32,0.065
8.322,0.075
8.324,0.07
8.326,0.05
8.328,0.02
8.33,-0.02
8.332,-0.07
8.334,-0.115
8.336,-0.16
8.338,-0.2
8.34,-0.225
8.342,-0.24
8.344,-0.245
8.346,-0.24
8.348,-0.225
8.35,-0.21
8.352,-0.185
8.354,-0.16
8.356,-0.135
8.358,-0.115
8.36,-0.095
8.362,-0.075
8.364,-0.06
8.366,-0.055
8.368,-0.05
8.37,-0.045
8.372,-0.045
8.374,-0.05
8.376,-0.05
8.378,-0.055
8.38,-0.055
8.382,-0.05
8.384,-0.045
8.386,-0.04
8.388,-0.03
8.39,-0.02
8.392,-0.015
8.394,-0.01
8.396,-0.005
8.398,0
8.4,0.005
8.402,0.005
8.404,0.005
8.406,0.005
8.408,0.005
8.41,0.005
8.412,0
8.414,-0.005
8.416,-0.01
8.418,-0.015
8.42,-0.015
8.422,-0.015
8.424,-0.015
8.426,-0.015
8.428,-0.01
8.43,-0.01
8.432,-0.005
8.434,0
8.436,0
8.438,0.005
8.44,0.005
8.442,0
8.444,0
8.446,-0.005
8.448,-0.01
8.45,-0.015
8.452,-0.015
8.454,-0.015
8.456,-0.015
8.458,-0.01
8.46,-0.005
8.462,0
8.464,0.005
8.466,0.005
8.468,0.005
8.47,0.005
8.472,0
8.474,0
8.476,0
8.478,0
8.48,0
8.482,0
8.484,0.005
8.486,0.01
8.488,0.01
8.49,0.015
8.492,0.015
8.494,0.02
8.496,0.025
8.498,0.03
8.5,0.035
8.502,0.04
8.504,0.045
8.506,0.045
8.508,0.045
8.51,0.04
8.512,0.035
8.514,0.035
8.516,0.03
8.518,0.03
8.52,0.03
8.522,0.035
8.524,0.04
8.526,0.05
8.528,0.055
8.53,0.055
8.532,0.06
8.534,0.065
8.536,0.065
8.538,0.07
8.54,0.075
8.542,0.075
8.544,0.08
8.546,0.08
8.548,0.08
8.55,0.08
8.552,0.08
8.554,0.08
8.556,0.08
8.558,0.085
8.56,0.095
8.562,0.105
8.564,0.115
8.566,0.125
8.568,0.135
8.57,0.135
8.572,0.14
8.574,0.14
8.576,0.14
8.578,0.14
8.58,0.145
8.582,0.155
8.584,0.165
8.586,0.175
8.588,0.185
8.59,0.195
8.592,0.2
8.594,0.195
8.596,0.19
8.598,0.185
8.6,0.18
8.602,0.175
8.604,0.18
8.606,0.185
8.608,0.195
8.61,0.21
8.612,0.225
8.614,0.235
8.616,0.245
8.618,0.245
8.62,0.245
8.622,0.245
8.624,0.24
8.626,0.235
8.628,0.23
8.63,0.23
8.632,0.225
8.634,0.225
8.636,0.225
8.638,0.22
8.64,0.215
8.642,0.21
8.644,0.2
8.646,0.19
8.648,0.18
8.65,0.17
8.652,0.16
8.654,0.15
8.656,0.14
8.658,0.13
8.66,0.125
8.662,0.12
8.664,0.115
8.666,0.11
8.668,0.105
8.67,0.105
8.672,0.105
8.674,0.1
8.676,0.1
8.678,0.095
8.68,0.09
8.682,0.08
8.684,0.07
8.686,0.055
8.688,0.045
8.69,0.03
8.692,0.02
8.694,0.01
8.696,0
8.698,-0.01
8.7,-0.01
8.702,-0.015
8.704,-0.015
8.706,-0.015
8.708,-0.015
8.71,-0.015
8.712,-0.015
8.714,-0.02
8.716,-0.025
8.718,-0.03
8.72,-0.035
8.722,-0.035
8.724,-0.04
8.726,-0.035
8.728,-0.035
8.73,-0.03
8.732,-0.025
8.734,-0.025
8.736,-0.025
8.738,-0.025
8.74,-0.025
8.742,-0.03
8.744,-0.03
8.746,-0.025
8.748,-0.025
8.75,-0.015
8.752,-0.01
8.754,-0.005
8.756,0
8.758,0.005
8.76,0.005
8.762,0.005
8.764,0
8.766,-0.01
8.768,-0.015
8.77,-0.02
8.772,-0.025
8.774,-0.03
8.776,-0.03
8.778,-0.03
8.78,-0.03
8.782,-0.03
8.784,-0.03
8.786,-0.03
8.788,-0.03
8.79,-0.03
8.792,-0.03
8.794,-0.025
8.796,-0.02
8.798,-0.015
8.8,-0.01
8.802,0
8.804,0
8.806,0.005
8.808,0.005
8.81,0
8.812,-0.005
8.814,-0.01
8.816,-0.015
8.818,-0.015
8.82,-0.02
8.822,-0.02
8.824,-0.015
8.826,-0.01
8.828,-0.01
8.83,-0.005
8.832,0
8.834,0
8.836,0
8.838,-0.005
8.84,-0.005
8.842,-0.005
8.844,-0.005
8.846,-0.005
8.848,-0.005
8.85,-0.01
8.852,-0.01
8.854,-0.015
8.856,-0.02
8.858,-0.025
8.86,-0.03
8.862,-0.035
8.864,-0.035
8.866,-0.035
8.868,-0.035
8.87,-0.03
8.872,-0.03
8.874,-0.025
8.876,-0.025
8.878,-0.03
8.88,-0.03
8.882,-0.035
8.884,-0.04
8.886,-0.045
8.888,-0.05
8.89,-0.05
8.892,-0.05
8.894,-0.05
8.896,-0.05
8.898,-0.05
8.9,-0.05
8.902,-0.05
8.904,-0.05
8.906,-0.045
8.908,-0.04
8.91,-0.035
8.912,-0.025
8.914,-0.015
8.916,-0.01
8.918,-0.01
8.92,-0.01
8.922,-0.015
8.924,-0.025
8.926,-0.04
8.928,-0.05
8.93,-0.06
8.932,-0.065
8.934,-0.065
8.936,-0.055
8.938,-0.045
8.94,-0.035
8.942,-0.02
8.944,-0.015
8.946,-0.01
8.948,-0.005
8.95,-0.01
8.952,-0.01
8.954,-0.015
8.956,-0.02
8.958,-0.025
8.96,-0.03
8.962,-0.03
8.964,-0.035
8.966,-0.04
8.968,-0.045
8.97,-0.05
8.972,-0.055
8.974,-0.06
8.976,-0.06
8.978,-0.055
8.98,-0.05
8.982,-0.045
8.984,-0.04
8.986,-0.035
8.988,-0.035
8.99,-0.035
8.992,-0.04
8.994,-0.045
8.996,-0.05
8.998,-0.055
9,-0.06
9.002,-0.06
9.004,-0.055
9.006,-0.055
9.008,-0.05
9.01,-0.045
9.012,-0.045
9.014,-0.04
9.016,-0.035
9.018,-0.035
9.02,-0.035
9.022,-0.035
9.024,-0.035
9.026,-0.035
9.028,-0.04
9.03,-0.04
9.032,-0.045
9.034,-0.045
9.036,-0.045
9.038,-0.04
9.04,-0.04
9.042,-0.035
9.044,-0.03
9.046,-0.03
9.048,-0.03
9.05,-0.03
9.052,-0.035
9.054,-0.04
9.056,-0.045
9.058,-0.05
9.06,-0.05
9.062,-0.045
9.064,-0.045
9.066,-0.04
9.068,-0.035
9.07,-0.03
9.072,-0.03
9.074,-0.035
9.076,-0.04
9.078,-0.045
9.08,-0.05
9.082,-0.055
9.084,-0.055
9.086,-0.05
9.088,-0.045
9.09,-0.035
9.092,-0.025
9.094,-0.02
9.096,-0.015
9.098,-0.02
9.1,-0.025
9.102,-0.03
9.104,-0.045
9.106,-0.055
9.108,-0.065
9.11,-0.07
9.112,-0.075
9.114,-0.075
9.116,-0.075
9.118,-0.075
9.12,-0.07
9.122,-0.065
9.124,-0.06
9.126,-0.055
9.128,-0.055
9.13,-0.055
9.132,-0.05
9.134,-0.05
9.136,-0.045
9.138,-0.045
9.14,-0.04
9.142,-0.04
9.144,-0.035
9.146,-0.035
9.148,-0.035
9.15,-0.035
9.152,-0.035
9.154,-0.04
9.156,-0.045
9.158,-0.05
9.16,-0.05
9.162,-0.055
9.164,-0.06
9.166,-0.06
9.168,-0.06
9.17,-0.055
9.172,-0.055
9.174,-0.05
9.176,-0.05
9.178,-0.045
9.18,-0.045
9.182,-0.05
9.184,-0.05
9.186,-0.055
9.188,-0.06
9.19,-0.06
9.192,-0.06
9.194,-0.06
9.196,-0.06
9.198,-0.055
9.2,-0.055
9.202,-0.05
9.204,-0.05
9.206,-0.05
9.208,-0.05
9.21,-0.05
9.212,-0.05
9.214,-0.05
9.216,-0.05
9.218,-0.045
9.22,-0.04
9.222,-0.035
9.224,-0.03
9.226,-0.02
9.228,-0.015
9.23,-0.015
9.232,-0.015
9.234,-0.02
9.236,-0.025
9.238,-0.03
9.24,-0.03
9.242,-0.035
9.244,-0.035
9.246,-0.035
9.248,-0.03
9.25,-0.025
9.252,-0.015
9.254,-0.01
9.256,0
9.258,0.005
9.26,0.01
9.262,0.01
9.264,0.015
9.266,0.015
9.268,0.015
9.27,0.01
9.272,0.01
9.274,0.005
9.276,0.005
9.278,0
9.28,0
9.282,-0.005
9.284,-0.005
9.286,0
9.288,0
9.29,0
9.292,-0.005
9.294,-0.01
9.296,-0.02
9.298,-0.03
9.3,-0.04
9.302,-0.05
9.304,-0.055
9.306,-0.055
9.308,-0.055
9.31,-0.045
9.312,-0.035
9.314,-0.025
9.316,-0.015
9.318,-0.01
9.32,-0.01
9.322,-0.015
9.324,-0.025
9.326,-0.035
9.328,-0.045
9.33,-0.055
9.332,-0.065
9.334,-0.065
9.336,-0.065
9.338,-0.06
9.34,-0.055
9.342,-0.05
9.344,-0.045
9.346,-0.045
9.348,-0.04
9.35,-0.04
9.352,-0.045
9.354,-0.045
9.356,-0.045
9.358,-0.05
9.36,-0.05
9.362,-0.055
9.364,-0.06
9.366,-0.065
9.368,-0.07
9.37,-0.07
9.372,-0.06
9.374,-0.05
9.376,-0.025
9.378,0
9.38,0.03
9.382,0.06
9.384,0.085
9.386,0.105
9.388,0.11
9.39,0.11
9.392,0.09
9.394,0.06
9.396,0.025
9.398,-0.02
9.4,-0.065
9.402,-0.11
9.404,-0.145
9.406,-0.175
9.408,-0.19
9.41,-0.195
9.412,-0.19
9.414,-0.175
9.416,-0.155
9.418,-0.135
9.42,-0.115
9.422,-0.095
9.424,-0.085
9.426,-0.075
9.428,-0.075
9.43,-0.075
9.432,-0.075
9.434,-0.08
9.436,-0.085
9.438,-0.085
9.44,-0.085
9.442,-0.08
9.444,-0.07
9.446,-0.06
9.448,-0.05
9.45,-0.04
9.452,-0.035
9.454,-0.025
9.456,-0.02
9.458,-0.015
9.46,-0.015
9.462,-0.015
9.464,-0.015
9.466,-0.02
9.468,-0.02
9.47,-0.02
9.472,-0.02
9.474,-0.02
9.476,-0.015
9.478,-0.01
9.48,-0.005
9.482,-0.005
9.484,0
9.486,0
9.488,0.005
9.49,0.005
9.492,0.01
9.494,0.01
9.496,0.015
9.498,0.015
9.5,0.015
9.502,0.015
9.504,0.01
9.506,0.005
9.508,-0.005
9.51,-0.015
9.512,-0.02
9.514,-0.025
9.516,-0.03
9.518,-0.025
9.52,-0.02
9.522,-0.015
9.524,-0.015
9.526,-0.01
9.528,-0.01
9.53,-0.01
9.532,-0.015
9.534,-0.015
9.536,-0.01
9.538,-0.005
9.54,0
9.542,0.01
9.544,0.02
9.546,0.03
9.548,0.03
9.55,0.025
9.552,0.015
9.554,0.005
9.556,-0.005
9.558,-0.015
9.56,-0.015
9.562,-0.01
9.564,0
9.566,0.015
9.568,0.03
9.57,0.04
9.572,0.05
9.574,0.055
9.576,0.055
9.578,0.055
9.58,0.05
9.582,0.045
9.584,0.05
9.586,0.05
9.588,0.06
9.59,0.065
9.592,0.075
9.594,0.08
9.596,0.08
9.598,0.075
9.6,0.07
9.602,0.06
9.604,0.055
9.606,0.05
9.608,0.05
9.61,0.055
9.612,0.06
9.614,0.07
9.616,0.075
9.618,0.085
9.62,0.09
9.622,0.095
9.624,0.095
9.626,0.095
9.628,0.1
9.63,0.105
9.632,0.11
9.634,0.12
9.636,0.13
9.638,0.14
9.64,0.155
9.642,0.16
9.644,0.165
9.646,0.17
9.648,0.17
9.65,0.175
9.652,0.175
9.654,0.18
9.656,0.185
9.658,0.19
9.66,0.195
9.662,0.2
9.664,0.205
9.666,0.21
9.668,0.215
9.67,0.22
9.672,0.22
9.674,0.225
9.676,0.23
9.678,0.235
9.68,0.24
9.682,0.24
9.684,0.245
9.686,0.25
9.688,0.25
9.69,0.25
9.692,0.25
9.694,0.245
9.696,0.24
9.698,0.23
9.7,0.225
9.702,0.22
9.704,0.21
9.706,0.205
9.708,0.2
9.71,0.2
9.712,0.2
9.714,0.2
9.716,0.2
9.718,0.2
9.72,0.2
9.722,0.2
9.724,0.195
9.726,0.185
9.728,0.17
9.73,0.15
9.732,0.13
9.734,0.11
9.736,0.09
9.738,0.075
9.74,0.065
9.742,0.055
9.744,0.055
9.746,0.055
9.748,0.055
9.75,0.055
9.752,0.055
9.754,0.05
9.756,0.045
9.758,0.035
9.76,0.02
9.762,0.01
9.764,-0.005
9.766,-0.015
9.768,-0.02
9.77,-0.025
9.772,-0.025
9.774,-0.02
9.776,-0.02
9.778,-0.015
9.78,-0.01
9.782,-0.005
9.784,-0.005
9.786,-0.005
9.788,-0.01
9.79,-0.015
9.792,-0.025
9.794,-0.03
9.796,-0.04
9.798,-0.045
9.8,-0.045
9.802,-0.045
9.804,-0.045
9.806,-0.04
9.808,-0.035
9.81,-0.03
9.812,-0.03
9.814,-0.03
9.816,-0.035
9.818,-0.035
9.82,-0.035
9.822,-0.04
9.824,-0.035
9.826,-0.03
9.828,-0.025
9.83,-0.02
9.832,-0.01
9.834,-0.005
9.836,-0.005
9.838,-0.005
9.84,-0.005
9.842,-0.005
9.844,-0.01
9.846,-0.01
9.848,-0.005
9.85,-0.005
9.852,-0.005
9.854,-0.005
9.856,-0.005
9.858,-0.005
9.86,-0.01
9.862,-0.015
9.864,-0.015
9.866,-0.015
9.868,-0.015
9.87,-0.01
9.872,-0.005
9.874,0
9.876,0
9.878,0.005
9.88,0
9.882,0
9.884,-0.005
9.886,-0.01
9.888,-0.01
9.89,-0.01
9.892,-0.01
9.894,-0.01
9.896,-0.01
9.898,-0.01
9.9,-0.01
9.902,-0.01
9.904,-0.015
9.906,-0.015
9.908,-0.02
9.91,-0.025
9.912,-0.03
9.914,-0.03
9.916,-0.035
9.918,-0.035
9.92,-0.035
9.922,-0.035
9.924,-0.035
9.926,-0.03
9.928,-0.025
9.93,-0.02
9.932,-0.015
9.934,-0.015
9.936,-0.015
9.938,-0.015
9.94,-0.02
9.942,-0.025
9.944,-0.03
9.946,-0.035
9.948,-0.04
9.95,-0.045
9.952,-0.045
9.954,-0.04
9.956,-0.04
9.958,-0.04
9.96,-0.04
9.962,-0.04
9.964,-0.04
9.966,-0.04
9.968,-0.04
9.97,-0.04
9.972,-0.04
9.974,-0.035
9.976,-0.035
9.978,-0.035
9.98,-0.03
9.982,-0.03
9.984,-0.03
9.986,-0.025
9.988,-0.025
9.99,-0.02
9.992,-0.02
9.994,-0.02
9.996,-0.02
9.998,-0.025
