0,0
0.002,-0.015
0.004,-0.03
0.006,-0.04
0.008,-0.055
0.01,-0.06
0.012,-0.07
0.014,-0.075
0.016,-0.075
0.018,-0.07
0.02,-0.065
0.022,-0.065
0.024,-0.06
0.026,-0.055
0.028,-0.055
0.03,-0.06
0.032,-0.065
0.034,-0.065
0.036,-0.07
0.038,-0.07
0.04,-0.07
0.042,-0.07
0.044,-0.065
0.046,-0.065
0.048,-0.065
0.05,-0.065
0.052,-0.075
0.054,-0.08
0.056,-0.09
0.058,-0.1
0.06,-0.11
0.062,-0.115
0.064,-0.12
0.066,-0.12
0.068,-0.12
0.07,-0.115
0.072,-0.11
0.074,-0.105
0.076,-0.095
0.078,-0.085
0.08,-0.07
0.082,-0.05
0.084,-0.02
0.086,0.015
0.088,0.06
0.09,0.11
0.092,0.16
0.094,0.205
0.096,0.24
0.098,0.26
0.1,0.26
0.102,0.235
0.104,0.19
0.106,0.125
0.108,0.05
0.11,-0.035
0.112,-0.125
0.114,-0.22
0.116,-0.305
0.118,-0.385
0.12,-0.46
0.122,-0.525
0.124,-0.58
0.126,-0.62
0.128,-0.645
0.13,-0.65
0.132,-0.64
0.134,-0.61
0.136,-0.565
0.138,-0.51
0.14,-0.45
0.142,-0.39
0.144,-0.33
0.146,-0.285
0.148,-0.24
0.15,-0.205
0.152,-0.18
0.154,-0.16
0.156,-0.145
0.158,-0.13
0.16,-0.115
0.162,-0.1
0.164,-0.09
0.166,-0.08
0.168,-0.065
0.17,-0.055
0.172,-0.045
0.174,-0.03
0.176,-0.02
0.178,-0.01
0.18,0
0.182,0
0.184,0
0.186,-0.01
0.188,-0.02
0.19,-0.03
0.192,-0.04
0.194,-0.045
0.196,-0.04
0.198,-0.035
0.2,-0.02
0.202,-0.005
0.204,0.005
0.206,0.02
0.208,0.025
0.21,0.025
0.212,0.02
0.214,0.01
0.216,0
0.218,-0.005
0.22,-0.01
0.222,-0.01
0.224,0
0.226,0.01
0.228,0.02
0.23,0.035
0.232,0.05
0.234,0.06
0.236,0.07
0.238,0.075
0.24,0.08
0.242,0.08
0.244,0.075
0.246,0.07
0.248,0.065
0.25,0.055
0.252,0.045
0.254,0.035
0.256,0.025
0.258,0.02
0.26,0.02
0.262,0.03
0.264,0.045
0.266,0.065
0.268,0.085
0.27,0.105
0.272,0.125
0.274,0.135
0.276,0.14
0.278,0.14
0.28,0.13
0.282,0.125
0.284,0.115
0.286,0.105
0.288,0.1
0.29,0.095
0.292,0.095
0.294,0.09
0.296,0.09
0.298,0.095
0.3,0.095
0.302,0.105
0.304,0.115
0.306,0.13
0.308,0.15
0.31,0.17
0.312,0.185
0.314,0.205
0.316,0.215
0.318,0.225
0.32,0.225
0.322,0.225
0.324,0.22
0.326,0.215
0.328,0.215
0.33,0.215
0.332,0.22
0.334,0.23
0.336,0.24
0.338,0.255
0.34,0.27
0.342,0.285
0.344,0.3
0.346,0.315
0.348,0.33
0.35,0.335
0.352,0.345
0.354,0.345
0.356,0.345
0.358,0.34
0.36,0.33
0.362,0.325
0.364,0.32
0.366,0.315
0.368,0.31
0.37,0.305
0.372,0.3
0.374,0.295
0.376,0.285
0.378,0.275
0.38,0.265
0.382,0.25
0.384,0.24
0.386,0.23
0.388,0.22
0.39,0.22
0.392,0.215
0.394,0.215
0.396,0.215
0.398,0.21
0.4,0.205
0.402,0.195
0.404,0.18
0.406,0.16
0.408,0.14
0.41,0.12
0.412,0.1
0.414,0.085
0.416,0.07
0.418,0.055
0.42,0.045
0.422,0.035
0.424,0.025
0.426,0.01
0.428,0
0.43,-0.015
0.432,-0.03
0.434,-0.04
0.436,-0.05
0.438,-0.055
0.44,-0.055
0.442,-0.055
0.444,-0.05
0.446,-0.04
0.448,-0.035
0.45,-0.03
0.452,-0.025
0.454,-0.025
0.456,-0.025
0.458,-0.03
0.46,-0.03
0.462,-0.035
0.464,-0.035
0.466,-0.04
0.468,-0.04
0.47,-0.04
0.472,-0.04
0.474,-0.04
0.476,-0.04
0.478,-0.035
0.48,-0.03
0.482,-0.025
0.484,-0.02
0.486,-0.02
0.488,-0.015
0.49,-0.02
0.492,-0.025
0.494,-0.03
0.496,-0.035
0.498,-0.04
0.5,-0.045
0.502,-0.045
0.504,-0.04
0.506,-0.035
0.508,-0.025
0.51,-0.01
0.512,-0.005
0.514,0.005
0.516,0.01
0.518,0.01
0.52,0.005
0.522,0
0.524,-0.005
0.526,-0.01
0.528,-0.015
0.53,-0.01
0.532,-0.01
0.534,-0.005
0.536,0.005
0.538,0.015
0.54,0.02
0.542,0.025
0.544,0.03
0.546,0.03
0.548,0.025
0.55,0.015
0.552,0
0.554,-0.015
0.556,-0.03
0.558,-0.04
0.56,-0.05
0.562,-0.05
0.564,-0.04
0.566,-0.025
0.568,-0.01
0.57,0.01
0.572,0.03
0.574,0.04
0.576,0.05
0.578,0.05
0.58,0.045
0.582,0.035
0.584,0.025
0.586,0.015
0.588,0.005
0.59,0
0.592,0
0.594,0.005
0.596,0.01
0.598,0.015
0.6,0.02
0.602,0.02
0.604,0.025
0.606,0.025
0.608,0.025
0.61,0.025
0.612,0.025
0.614,0.025
0.616,0.02
0.618,0.015
0.62,0.01
0.622,0.005
0.624,0
0.626,-0.01
0.628,-0.015
0.63,-0.02
0.632,-0.025
0.634,-0.025
0.636,-0.025
0.638,-0.025
0.64,-0.025
0.642,-0.025
0.644,-0.025
0.646,-0.03
0.648,-0.03
0.65,-0.03
0.652,-0.03
0.654,-0.025
0.656,-0.02
0.658,-0.015
0.66,-0.01
0.662,-0.005
0.664,0
0.666,0
0.668,0.005
0.67,0.005
0.672,0.005
0.674,0
0.676,-0.005
0.678,-0.01
0.68,-0.02
0.682,-0.025
0.684,-0.03
0.686,-0.04
0.688,-0.04
0.69,-0.045
0.692,-0.045
0.694,-0.04
0.696,-0.035
0.698,-0.03
0.7,-0.03
0.702,-0.03
0.704,-0.03
0.706,-0.035
0.708,-0.04
0.71,-0.045
0.712,-0.045
0.714,-0.045
0.716,-0.035
0.718,-0.025
0.72,-0.01
0.722,0.005
0.724,0.025
0.726,0.035
0.728,0.04
0.73,0.04
0.732,0.035
0.734,0.02
0.736,0
0.738,-0.02
0.74,-0.035
0.742,-0.05
0.744,-0.06
0.746,-0.06
0.748,-0.06
0.75,-0.05
0.752,-0.04
0.754,-0.03
0.756,-0.02
0.758,-0.015
0.76,-0.015
0.762,-0.015
0.764,-0.02
0.766,-0.025
0.768,-0.035
0.77,-0.04
0.772,-0.05
0.774,-0.05
0.776,-0.055
0.778,-0.05
0.78,-0.04
0.782,-0.03
0.784,-0.015
0.786,0
0.788,0.01
0.79,0.02
0.792,0.025
0.794,0.025
0.796,0.015
0.798,0.005
0.8,-0.01
0.802,-0.02
0.804,-0.035
0.806,-0.04
0.808,-0.045
0.81,-0.045
0.812,-0.045
0.814,-0.04
0.816,-0.04
0.818,-0.04
0.82,-0.045
0.822,-0.05
0.824,-0.055
0.826,-0.06
0.828,-0.065
0.83,-0.065
0.832,-0.065
0.834,-0.06
0.836,-0.055
0.838,-0.045
0.84,-0.035
0.842,-0.03
0.844,-0.025
0.846,-0.025
0.848,-0.025
0.85,-0.03
0.852,-0.03
0.854,-0.03
0.856,-0.03
0.858,-0.02
0.86,-0.005
0.862,0.02
0.864,0.05
0.866,0.085
0.868,0.125
0.87,0.16
0.872,0.19
0.874,0.215
0.876,0.22
0.878,0.21
0.88,0.18
0.882,0.125
0.884,0.055
0.886,-0.035
0.888,-0.13
0.89,-0.235
0.892,-0.34
0.894,-0.435
0.896,-0.515
0.898,-0.575
0.9,-0.615
0.902,-0.63
0.904,-0.625
0.906,-0.595
0.908,-0.55
0.91,-0.49
0.912,-0.425
0.914,-0.355
0.916,-0.295
0.918,-0.24
0.92,-0.195
0.922,-0.16
0.924,-0.135
0.926,-0.115
0.928,-0.1
0.93,-0.09
0.932,-0.08
0.934,-0.07
0.936,-0.06
0.938,-0.05
0.94,-0.045
0.942,-0.04
0.944,-0.04
0.946,-0.035
0.948,-0.035
0.95,-0.035
0.952,-0.03
0.954,-0.025
0.956,-0.015
0.958,0
0.96,0.015
0.962,0.025
0.964,0.04
0.966,0.045
0.968,0.05
0.97,0.045
0.972,0.04
0.974,0.03
0.976,0.015
0.978,0.005
0.98,-0.01
0.982,-0.015
0.984,-0.02
0.986,-0.02
0.988,-0.015
0.99,-0.005
0.992,0
0.994,0.01
0.996,0.015
0.998,0.02
1,0.025
1.002,0.03
1.004,0.035
1.006,0.04
1.008,0.05
1.01,0.06
1.012,0.065
1.014,0.075
1.016,0.075
1.018,0.075
1.02,0.07
1.022,0.065
1.024,0.055
1.026,0.05
1.028,0.05
1.03,0.055
1.032,0.06
1.034,0.07
1.036,0.085
1.038,0.095
1.04,0.105
1.042,0.11
1.044,0.11
1.046,0.11
1.048,0.105
1.05,0.105
1.052,0.105
1.054,0.105
1.056,0.115
1.058,0.125
1.06,0.135
1.062,0.145
1.064,0.155
1.066,0.16
1.068,0.16
1.07,0.155
1.072,0.15
1.074,0.145
1.076,0.145
1.078,0.145
1.08,0.15
1.082,0.165
1.084,0.18
1.086,0.195
1.088,0.215
1.09,0.235
1.092,0.245
1.094,0.255
1.096,0.26
1.098,0.265
1.1,0.26
1.102,0.26
1.104,0.26
1.106,0.26
1.108,0.26
1.11,0.265
1.112,0.27
1.114,0.275
1.116,0.28
1.118,0.285
1.12,0.29
1.122,0.295
1.124,0.3
1.126,0.305
1.128,0.31
1.13,0.32
1.132,0.33
1.134,0.34
1.136,0.355
1.138,0.37
1.14,0.38
1.142,0.385
1.144,0.39
1.146,0.39
1.148,0.38
1.15,0.365
1.152,0.35
1.154,0.33
1.156,0.31
1.158,0.295
1.16,0.28
1.162,0.27
1.164,0.265
1.166,0.26
1.168,0.26
1.17,0.25
1.172,0.24
1.174,0.23
1.176,0.21
1.178,0.19
1.18,0.17
1.182,0.155
1.184,0.14
1.186,0.125
1.188,0.115
1.19,0.11
1.192,0.1
1.194,0.09
1.196,0.08
1.198,0.065
1.2,0.05
1.202,0.035
1.204,0.02
1.206,0.01
1.208,0
1.21,0
1.212,0
1.214,0.005
1.216,0.015
1.218,0.02
1.22,0.025
1.222,0.03
1.224,0.03
1.226,0.03
1.228,0.02
1.23,0.01
1.232,0
1.234,-0.015
1.236,-0.03
1.238,-0.04
1.24,-0.05
1.242,-0.055
1.244,-0.05
1.246,-0.05
1.248,-0.045
1.25,-0.035
1.252,-0.03
1.254,-0.03
1.256,-0.03
1.258,-0.035
1.26,-0.04
1.262,-0.045
1.264,-0.05
1.266,-0.05
1.268,-0.045
1.27,-0.04
1.272,-0.03
1.274,-0.02
1.276,-0.01
1.278,-0.005
1.28,-0.005
1.282,-0.005
1.284,-0.01
1.286,-0.01
1.288,-0.015
1.29,-0.02
1.292,-0.025
1.294,-0.02
1.296,-0.02
1.298,-0.015
1.3,-0.01
1.302,0
1.304,0.005
1.306,0.01
1.308,0.015
1.31,0.015
1.312,0.015
1.314,0.01
1.316,0
1.318,-0.01
1.32,-0.015
1.322,-0.025
1.324,-0.025
1.326,-0.025
1.328,-0.015
1.33,-0.005
1.332,0.01
1.334,0.02
1.336,0.03
1.338,0.035
1.34,0.035
1.342,0.03
1.344,0.025
1.346,0.015
1.348,0.01
1.35,0.005
1.352,0.01
1.354,0.01
1.356,0.015
1.358,0.02
1.36,0.02
1.362,0.01
1.364,0
1.366,-0.015
1.368,-0.035
1.37,-0.05
1.372,-0.06
1.374,-0.065
1.376,-0.06
1.378,-0.05
1.38,-0.035
1.382,-0.015
1.384,0
1.386,0.01
1.388,0.015
1.39,0.015
1.392,0.01
1.394,0
1.396,-0.015
1.398,-0.025
1.4,-0.035
1.402,-0.04
1.404,-0.04
1.406,-0.04
1.408,-0.04
1.41,-0.04
1.412,-0.035
1.414,-0.035
1.416,-0.035
1.418,-0.035
1.42,-0.035
1.422,-0.035
1.424,-0.035
1.426,-0.035
1.428,-0.035
1.43,-0.03
1.432,-0.025
1.434,-0.025
1.436,-0.02
1.438,-0.015
1.44,-0.01
1.442,-0.01
1.444,-0.01
1.446,-0.015
1.448,-0.02
1.45,-0.03
1.452,-0.04
1.454,-0.05
1.456,-0.06
1.458,-0.07
1.46,-0.07
1.462,-0.07
1.464,-0.065
1.466,-0.06
1.468,-0.05
1.47,-0.04
1.472,-0.03
1.474,-0.025
1.476,-0.025
1.478,-0.025
1.48,-0.03
1.482,-0.04
1.484,-0.05
1.486,-0.06
1.488,-0.07
1.49,-0.075
1.492,-0.08
1.494,-0.08
1.496,-0.08
1.498,-0.075
1.5,-0.07
1.502,-0.07
1.504,-0.065
1.506,-0.065
1.508,-0.06
1.51,-0.06
1.512,-0.055
1.514,-0.055
1.516,-0.05
1.518,-0.045
1.52,-0.04
1.522,-0.035
1.524,-0.03
1.526,-0.025
1.528,-0.03
1.53,-0.03
1.532,-0.035
1.534,-0.04
1.536,-0.045
1.538,-0.05
1.54,-0.055
1.542,-0.055
1.544,-0.055
1.546,-0.06
1.548,-0.06
1.55,-0.06
1.552,-0.06
1.554,-0.06
1.556,-0.06
1.558,-0.065
1.56,-0.065
1.562,-0.065
1.564,-0.065
1.566,-0.065
1.568,-0.06
1.57,-0.06
1.572,-0.055
1.574,-0.055
1.576,-0.055
1.578,-0.06
1.58,-0.065
1.582,-0.07
1.584,-0.075
1.586,-0.08
1.588,-0.075
1.59,-0.075
1.592,-0.065
1.594,-0.06
1.596,-0.05
1.598,-0.05
1.6,-0.05
1.602,-0.055
1.604,-0.07
1.606,-0.085
1.608,-0.1
1.61,-0.115
1.612,-0.13
1.614,-0.135
1.616,-0.135
1.618,-0.13
1.62,-0.12
1.622,-0.105
1.624,-0.09
1.626,-0.07
1.628,-0.055
1.63,-0.045
1.632,-0.035
1.634,-0.035
1.636,-0.035
1.638,-0.04
1.64,-0.05
1.642,-0.065
1.644,-0.08
1.646,-0.095
1.648,-0.11
1.65,-0.115
1.652,-0.12
1.654,-0.115
1.656,-0.11
1.658,-0.1
1.66,-0.09
1.662,-0.08
1.664,-0.075
1.666,-0.07
1.668,-0.07
1.67,-0.075
1.672,-0.075
1.674,-0.075
1.676,-0.075
1.678,-0.07
1.68,-0.07
1.682,-0.065
1.684,-0.06
1.686,-0.06
1.688,-0.065
1.69,-0.07
1.692,-0.075
1.694,-0.08
1.696,-0.085
1.698,-0.09
1.7,-0.09
1.702,-0.09
1.704,-0.095
1.706,-0.095
1.708,-0.1
1.71,-0.105
1.712,-0.11
1.714,-0.115
1.716,-0.12
1.718,-0.12
1.72,-0.115
1.722,-0.11
1.724,-0.11
1.726,-0.105
1.728,-0.105
1.73,-0.105
1.732,-0.105
1.734,-0.105
1.736,-0.1
1.738,-0.095
1.74,-0.085
1.742,-0.075
1.744,-0.07
1.746,-0.065
1.748,-0.065
1.75,-0.07
1.752,-0.08
1.754,-0.09
1.756,-0.1
1.758,-0.105
1.76,-0.105
1.762,-0.1
1.764,-0.09
1.766,-0.075
1.768,-0.06
1.77,-0.055
1.772,-0.055
1.774,-0.06
1.776,-0.075
1.778,-0.09
1.78,-0.105
1.782,-0.12
1.784,-0.125
1.786,-0.12
1.788,-0.115
1.79,-0.1
1.792,-0.08
1.794,-0.065
1.796,-0.055
1.798,-0.05
1.8,-0.05
1.802,-0.055
1.804,-0.065
1.806,-0.08
1.808,-0.09
1.81,-0.1
1.812,-0.11
1.814,-0.115
1.816,-0.115
1.818,-0.115
1.82,-0.115
1.822,-0.115
1.824,-0.115
1.826,-0.11
1.828,-0.105
1.83,-0.1
1.832,-0.085
1.834,-0.075
1.836,-0.06
1.838,-0.045
1.84,-0.03
1.842,-0.02
1.844,-0.02
1.846,-0.02
1.848,-0.03
1.85,-0.04
1.852,-0.05
1.854,-0.06
1.856,-0.07
1.858,-0.075
1.86,-0.075
1.862,-0.07
1.864,-0.065
1.866,-0.06
1.868,-0.055
1.87,-0.05
1.872,-0.055
1.874,-0.055
1.876,-0.065
1.878,-0.07
1.88,-0.075
1.882,-0.08
1.884,-0.08
1.886,-0.08
1.888,-0.08
1.89,-0.08
1.892,-0.08
1.894,-0.085
1.896,-0.085
1.898,-0.085
1.9,-0.09
1.902,-0.09
1.904,-0.095
1.906,-0.095
1.908,-0.095
1.91,-0.095
1.912,-0.095
1.914,-0.095
1.916,-0.095
1.918,-0.095
1.92,-0.095
1.922,-0.09
1.924,-0.08
1.926,-0.07
1.928,-0.06
1.93,-0.05
1.932,-0.04
1.934,-0.03
1.936,-0.02
1.938,-0.01
1.94,0.005
1.942,0.02
1.944,0.04
1.946,0.065
1.948,0.09
1.95,0.11
1.952,0.125
1.954,0.13
1.956,0.12
1.958,0.1
1.96,0.065
1.962,0.015
1.964,-0.04
1.966,-0.1
1.968,-0.16
1.97,-0.22
1.972,-0.28
1.974,-0.33
1.976,-0.38
1.978,-0.425
1.98,-0.46
1.982,-0.495
1.984,-0.515
1.986,-0.52
1.988,-0.515
1.99,-0.49
1.992,-0.45
1.994,-0.4
1.996,-0.34
1.998,-0.28
2,-0.22
2.002,-0.175
2.004,-0.135
2.006,-0.115
2.008,-0.105
2.01,-0.1
2.012,-0.105
2.014,-0.11
2.016,-0.115
2.018,-0.115
2.02,-0.11
2.022,-0.1
2.024,-0.085
2.026,-0.075
2.028,-0.06
2.03,-0.045
2.032,-0.035
2.034,-0.025
2.036,-0.015
2.038,-0.005
2.04,0
2.042,0.005
2.044,0.01
2.046,0.015
2.048,0.015
2.05,0.01
2.052,0.005
2.054,0
2.056,-0.01
2.058,-0.02
2.06,-0.025
2.062,-0.03
2.064,-0.03
2.066,-0.02
2.068,-0.01
2.07,0.01
2.072,0.03
2.074,0.05
2.076,0.065
2.078,0.075
2.08,0.08
2.082,0.08
2.084,0.07
2.086,0.06
2.088,0.045
2.09,0.03
2.092,0.025
2.094,0.02
2.096,0.02
2.098,0.02
2.1,0.03
2.102,0.035
2.104,0.045
2.106,0.055
2.108,0.06
2.11,0.06
2.112,0.06
2.114,0.06
2.116,0.06
2.118,0.06
2.12,0.065
2.122,0.07
2.124,0.075
2.126,0.09
2.128,0.1
2.13,0.115
2.132,0.13
2.134,0.14
2.136,0.15
2.138,0.15
2.14,0.14
2.142,0.13
2.144,0.115
2.146,0.095
2.148,0.085
2.15,0.075
2.152,0.08
2.154,0.09
2.156,0.105
2.158,0.13
2.16,0.16
2.162,0.185
2.164,0.21
2.166,0.23
2.168,0.24
2.17,0.25
2.172,0.25
2.174,0.255
2.176,0.255
2.178,0.255
2.18,0.255
2.182,0.26
2.184,0.26
2.186,0.265
2.188,0.265
2.19,0.26
2.192,0.26
2.194,0.26
2.196,0.26
2.198,0.265
2.2,0.27
2.202,0.28
2.204,0.29
2.206,0.305
2.208,0.32
2.21,0.33
2.212,0.335
2.214,0.34
2.216,0.34
2.218,0.335
2.22,0.325
2.222,0.315
2.224,0.305
2.226,0.3
2.228,0.29
2.23,0.285
2.232,0.275
2.234,0.27
2.236,0.265
2.238,0.26
2.24,0.25
2.242,0.24
2.244,0.235
2.246,0.22
2.248,0.21
2.25,0.2
2.252,0.19
2.254,0.185
2.256,0.175
2.258,0.17
2.26,0.17
2.262,0.165
2.264,0.165
2.266,0.16
2.268,0.155
2.27,0.15
2.272,0.135
2.274,0.125
2.276,0.105
2.278,0.09
2.28,0.07
2.282,0.055
2.284,0.045
2.286,0.035
2.288,0.03
2.29,0.025
2.292,0.025
2.294,0.025
2.296,0.025
2.298,0.025
2.3,0.02
2.302,0.015
2.304,0.01
2.306,0.005
2.308,0
2.31,-0.005
2.312,-0.015
2.314,-0.02
2.316,-0.025
2.318,-0.025
2.32,-0.03
2.322,-0.035
2.324,-0.035
2.326,-0.035
2.328,-0.035
2.33,-0.035
2.332,-0.03
2.334,-0.03
2.336,-0.03
2.338,-0.025
2.34,-0.025
2.342,-0.025
2.344,-0.025
2.346,-0.025
2.348,-0.025
2.35,-0.025
2.352,-0.025
2.354,-0.025
2.356,-0.025
2.358,-0.025
2.36,-0.025
2.362,-0.025
2.364,-0.02
2.366,-0.015
2.368,-0.01
2.37,-0.005
2.372,0
2.374,0.005
2.376,0.005
2.378,0
2.38,0
2.382,-0.005
2.384,-0.01
2.386,-0.01
2.388,-0.01
2.39,-0.005
2.392,0
2.394,0.01
2.396,0.015
2.398,0.02
2.4,0.025
2.402,0.02
2.404,0.015
2.406,0.005
2.408,-0.005
2.41,-0.01
2.412,-0.01
2.414,-0.005
2.416,0.005
2.418,0.015
2.42,0.02
2.422,0.03
2.424,0.03
2.426,0.025
2.428,0.015
2.43,0.005
2.432,-0.005
2.434,-0.015
2.436,-0.015
2.438,-0.015
2.44,-0.01
2.442,0
2.444,0.005
2.446,0.015
2.448,0.02
2.45,0.02
2.452,0.015
2.454,0.015
2.456,0.01
2.458,0.01
2.46,0.015
2.462,0.02
2.464,0.02
2.466,0.025
2.468,0.025
2.47,0.015
2.472,0.005
2.474,-0.005
2.476,-0.02
2.478,-0.03
2.48,-0.035
2.482,-0.03
2.484,-0.025
2.486,-0.01
2.488,0.005
2.49,0.02
2.492,0.03
2.494,0.03
2.496,0.025
2.498,0.01
2.5,-0.005
2.502,-0.025
2.504,-0.04
2.506,-0.055
2.508,-0.055
2.51,-0.05
2.512,-0.04
2.514,-0.025
2.516,-0.005
2.518,0.005
2.52,0.015
2.522,0.02
2.524,0.015
2.526,0.005
2.528,-0.005
2.53,-0.02
2.532,-0.035
2.534,-0.04
2.536,-0.045
2.538,-0.045
2.54,-0.045
2.542,-0.04
2.544,-0.04
2.546,-0.035
2.548,-0.035
2.55,-0.035
2.552,-0.035
2.554,-0.035
2.556,-0.035
2.558,-0.03
2.56,-0.025
2.562,-0.02
2.564,-0.01
2.566,-0.005
2.568,0
2.57,0
2.572,0
2.574,-0.01
2.576,-0.015
2.578,-0.025
2.58,-0.035
2.582,-0.04
2.584,-0.045
2.586,-0.045
2.588,-0.04
2.59,-0.035
2.592,-0.03
2.594,-0.025
2.596,-0.025
2.598,-0.025
2.6,-0.03
2.602,-0.035
2.604,-0.04
2.606,-0.04
2.608,-0.04
2.61,-0.035
2.612,-0.025
2.614,-0.015
2.616,-0.005
2.618,0.005
2.62,0.01
2.622,0.01
2.624,0.01
2.626,0.005
2.628,-0.005
2.63,-0.01
2.632,-0.015
2.634,-0.02
2.636,-0.02
2.638,-0.015
2.64,-0.015
2.642,-0.01
2.644,-0.01
2.646,-0.015
2.648,-0.015
2.65,-0.025
2.652,-0.03
2.654,-0.035
2.656,-0.04
2.658,-0.04
2.66,-0.04
2.662,-0.04
2.664,-0.035
2.666,-0.035
2.668,-0.03
2.67,-0.03
2.672,-0.025
2.674,-0.025
2.676,-0.025
2.678,-0.02
2.68,-0.015
2.682,-0.01
2.684,-0.005
2.686,0
2.688,0.005
2.69,0.005
2.692,0.005
2.694,0.005
2.696,-0.005
2.698,-0.01
2.7,-0.015
2.702,-0.02
2.704,-0.025
2.706,-0.025
2.708,-0.025
2.71,-0.025
2.712,-0.02
2.714,-0.02
2.716,-0.02
2.718,-0.025
2.72,-0.03
2.722,-0.035
2.724,-0.04
2.726,-0.045
2.728,-0.045
2.73,-0.04
2.732,-0.03
2.734,-0.02
2.736,-0.01
2.738,0
2.74,0.01
2.742,0.015
2.744,0.02
2.746,0.015
2.748,0.01
2.75,0.005
2.752,0
2.754,-0.005
2.756,-0.01
2.758,-0.015
2.76,-0.015
2.762,-0.02
2.764,-0.02
2.766,-0.025
2.768,-0.035
2.77,-0.04
2.772,-0.045
2.774,-0.05
2.776,-0.045
2.778,-0.04
2.78,-0.035
2.782,-0.025
2.784,-0.015
2.786,0
2.788,0.005
2.79,0.015
2.792,0.015
2.794,0.02
2.796,0.02
2.798,0.02
2.8,0.02
2.802,0.02
2.804,0.015
2.806,0.015
2.808,0.01
2.81,0
2.812,-0.005
2.814,-0.005
2.816,-0.005
2.818,-0.005
2.82,0
2.822,0.005
2.824,0.01
2.826,0.015
2.828,0.015
2.83,0.015
2.832,0.01
2.834,0.005
2.836,0
2.838,-0.01
2.84,-0.01
2.842,-0.015
2.844,-0.015
2.846,-0.015
2.848,-0.015
2.85,-0.02
2.852,-0.02
2.854,-0.025
2.856,-0.03
2.858,-0.03
2.86,-0.03
2.862,-0.025
2.864,-0.025
2.866,-0.025
2.868,-0.03
2.87,-0.04
2.872,-0.05
2.874,-0.065
2.876,-0.075
2.878,-0.085
2.88,-0.09
2.882,-0.085
2.884,-0.07
2.886,-0.055
2.888,-0.04
2.89,-0.025
2.892,-0.015
2.894,-0.01
2.896,-0.015
2.898,-0.015
2.9,-0.015
2.902,-0.01
2.904,0.005
2.906,0.03
2.908,0.065
2.91,0.1
2.912,0.14
2.914,0.175
2.916,0.205
2.918,0.215
2.92,0.215
2.922,0.195
2.924,0.165
2.926,0.12
2.928,0.065
2.93,0.005
2.932,-0.06
2.934,-0.13
2.936,-0.2
2.938,-0.27
2.94,-0.335
2.942,-0.395
2.944,-0.445
2.946,-0.485
2.948,-0.51
2.95,-0.52
2.952,-0.515
2.954,-0.49
2.956,-0.45
2.958,-0.4
2.96,-0.345
2.962,-0.29
2.964,-0.235
2.966,-0.19
2.968,-0.155
2.97,-0.13
2.972,-0.11
2.974,-0.1
2.976,-0.09
2.978,-0.085
2.98,-0.075
2.982,-0.065
2.984,-0.055
2.986,-0.045
2.988,-0.04
2.99,-0.03
2.992,-0.03
2.994,-0.025
2.996,-0.02
2.998,-0.02
3,-0.01
3.002,0
3.004,0.01
3.006,0.02
3.008,0.03
3.01,0.035
3.012,0.035
3.014,0.03
3.016,0.02
3.018,0.01
3.02,0.005
3.022,0
3.024,0
3.026,0.005
3.028,0.015
3.03,0.025
3.032,0.035
3.034,0.04
3.036,0.04
3.038,0.04
3.04,0.04
3.042,0.035
3.044,0.03
3.046,0.03
3.048,0.03
3.05,0.035
3.052,0.035
3.054,0.04
3.056,0.04
3.058,0.035
3.06,0.03
3.062,0.02
3.064,0.015
3.066,0.01
3.068,0.01
3.07,0.02
3.072,0.035
3.074,0.05
3.076,0.07
3.078,0.085
3.08,0.095
3.082,0.105
3.084,0.105
3.086,0.105
3.088,0.1
3.09,0.095
3.092,0.09
3.094,0.09
3.096,0.09
3.098,0.095
3.1,0.095
3.102,0.1
3.104,0.105
3.106,0.105
3.108,0.105
3.11,0.105
3.112,0.1
3.114,0.105
3.116,0.11
3.118,0.12
3.12,0.135
3.122,0.15
3.124,0.165
3.126,0.175
3.128,0.185
3.13,0.195
3.132,0.195
3.134,0.195
3.136,0.195
3.138,0.19
3.14,0.19
3.142,0.19
3.144,0.195
3.146,0.2
3.148,0.21
3.15,0.215
3.152,0.22
3.154,0.225
3.156,0.23
3.158,0.235
3.16,0.24
3.162,0.245
3.164,0.25
3.166,0.255
3.168,0.265
3.17,0.28
3.172,0.29
3.174,0.305
3.176,0.315
3.178,0.33
3.18,0.34
3.182,0.35
3.184,0.355
3.186,0.355
3.188,0.355
3.19,0.355
3.192,0.345
3.194,0.335
3.196,0.32
3.198,0.3
3.2,0.285
3.202,0.27
3.204,0.255
3.206,0.245
3.208,0.24
3.21,0.235
3.212,0.23
3.214,0.225
3.216,0.225
3.218,0.22
3.22,0.21
3.222,0.2
3.224,0.195
3.226,0.18
3.228,0.17
3.23,0.16
3.232,0.145
3.234,0.13
3.236,0.11
3.238,0.095
3.24,0.075
3.242,0.06
3.244,0.045
3.246,0.03
3.248,0.02
3.25,0.015
3.252,0.015
3.254,0.015
3.256,0.02
3.258,0.02
3.26,0.025
3.262,0.03
3.264,0.03
3.266,0.025
3.268,0.025
3.27,0.02
3.272,0.01
3.274,0.005
3.276,-0.005
3.278,-0.015
3.28,-0.025
3.282,-0.03
3.284,-0.035
3.286,-0.04
3.288,-0.04
3.29,-0.04
3.292,-0.035
3.294,-0.03
3.296,-0.03
3.298,-0.025
3.3,-0.03
3.302,-0.03
3.304,-0.035
3.306,-0.045
3.308,-0.05
3.31,-0.055
3.312,-0.055
3.314,-0.05
3.316,-0.04
3.318,-0.03
3.32,-0.015
3.322,-0.005
3.324,0.005
3.326,0.01
3.328,0.005
3.33,0
3.332,-0.01
3.334,-0.025
3.336,-0.035
3.338,-0.045
3.34,-0.045
3.342,-0.04
3.344,-0.035
3.346,-0.025
3.348,-0.015
3.35,-0.005
3.352,-0.005
3.354,-0.01
3.356,-0.015
3.358,-0.025
3.36,-0.04
3.362,-0.045
3.364,-0.045
3.366,-0.04
3.368,-0.03
3.37,-0.015
3.372,0
3.374,0.015
3.376,0.025
3.378,0.03
3.38,0.025
3.382,0.015
3.384,0.005
3.386,-0.005
3.388,-0.015
3.39,-0.025
3.392,-0.025
3.394,-0.025
3.396,-0.025
3.398,-0.025
3.4,-0.025
3.402,-0.03
3.404,-0.04
3.406,-0.05
3.408,-0.055
3.41,-0.065
3.412,-0.065
3.414,-0.06
3.416,-0.05
3.418,-0.035
3.42,-0.015
3.422,0
3.424,0.02
3.426,0.03
3.428,0.04
3.43,0.045
3.432,0.045
3.434,0.045
3.436,0.04
3.438,0.04
3.44,0.04
3.442,0.035
3.444,0.03
3.446,0.025
3.448,0.015
3.45,0.005
3.452,-0.01
3.454,-0.02
3.456,-0.03
3.458,-0.04
3.46,-0.04
3.462,-0.035
3.464,-0.035
3.466,-0.03
3.468,-0.025
3.47,-0.025
3.472,-0.03
3.474,-0.035
3.476,-0.045
3.478,-0.05
3.48,-0.055
3.482,-0.05
3.484,-0.045
3.486,-0.035
3.488,-0.025
3.49,-0.02
3.492,-0.02
3.494,-0.025
3.496,-0.035
3.498,-0.05
3.5,-0.06
3.502,-0.07
3.504,-0.075
3.506,-0.07
3.508,-0.065
3.51,-0.05
3.512,-0.04
3.514,-0.035
3.516,-0.035
3.518,-0.04
3.52,-0.05
3.522,-0.065
3.524,-0.08
3.526,-0.09
3.528,-0.095
3.53,-0.09
3.532,-0.08
3.534,-0.07
3.536,-0.05
3.538,-0.035
3.54,-0.025
3.542,-0.02
3.544,-0.015
3.546,-0.02
3.548,-0.02
3.55,-0.025
3.552,-0.025
3.554,-0.025
3.556,-0.025
3.558,-0.025
3.56,-0.03
3.562,-0.035
3.564,-0.04
3.566,-0.045
3.568,-0.055
3.57,-0.06
3.572,-0.065
3.574,-0.065
3.576,-0.065
3.578,-0.06
3.58,-0.06
3.582,-0.06
3.584,-0.06
3.586,-0.065
3.588,-0.07
3.59,-0.08
3.592,-0.085
3.594,-0.09
3.596,-0.09
3.598,-0.09
3.6,-0.08
3.602,-0.07
3.604,-0.06
3.606,-0.05
3.608,-0.04
3.61,-0.035
3.612,-0.035
3.614,-0.035
3.616,-0.04
3.618,-0.045
3.62,-0.05
3.622,-0.055
3.624,-0.06
3.626,-0.065
3.628,-0.065
3.63,-0.07
3.632,-0.07
3.634,-0.07
3.636,-0.07
3.638,-0.07
3.64,-0.07
3.642,-0.07
3.644,-0.07
3.646,-0.07
3.648,-0.07
3.65,-0.07
3.652,-0.065
3.654,-0.065
3.656,-0.065
3.658,-0.06
3.66,-0.055
3.662,-0.055
3.664,-0.05
3.666,-0.05
3.668,-0.045
3.67,-0.045
3.672,-0.05
3.674,-0.05
3.676,-0.055
3.678,-0.055
3.68,-0.06
3.682,-0.06
3.684,-0.065
3.686,-0.065
3.688,-0.065
3.69,-0.065
3.692,-0.065
3.694,-0.065
3.696,-0.06
3.698,-0.06
3.7,-0.06
3.702,-0.06
3.704,-0.06
3.706,-0.06
3.708,-0.06
3.71,-0.06
3.712,-0.055
3.714,-0.055
3.716,-0.05
3.718,-0.05
3.72,-0.05
3.722,-0.055
3.724,-0.06
3.726,-0.07
3.728,-0.075
3.73,-0.085
3.732,-0.09
3.734,-0.09
3.736,-0.085
3.738,-0.075
3.74,-0.065
3.742,-0.06
3.744,-0.055
3.746,-0.055
3.748,-0.06
3.75,-0.07
3.752,-0.08
3.754,-0.09
3.756,-0.095
3.758,-0.095
3.76,-0.085
3.762,-0.07
3.764,-0.05
3.766,-0.03
3.768,-0.02
3.77,-0.015
3.772,-0.02
3.774,-0.03
3.776,-0.05
3.778,-0.07
3.78,-0.09
3.782,-0.1
3.784,-0.105
3.786,-0.105
3.788,-0.095
3.79,-0.08
3.792,-0.065
3.794,-0.05
3.796,-0.04
3.798,-0.035
3.8,-0.03
3.802,-0.03
3.804,-0.03
3.806,-0.035
3.808,-0.04
3.81,-0.045
3.812,-0.055
3.814,-0.06
3.816,-0.07
3.818,-0.075
3.82,-0.08
3.822,-0.08
3.824,-0.075
3.826,-0.065
3.828,-0.055
3.83,-0.04
3.832,-0.035
3.834,-0.025
3.836,-0.025
3.838,-0.03
3.84,-0.035
3.842,-0.045
3.844,-0.055
3.846,-0.06
3.848,-0.07
3.85,-0.07
3.852,-0.075
3.854,-0.08
3.856,-0.085
3.858,-0.095
3.86,-0.105
3.862,-0.12
3.864,-0.13
3.866,-0.14
3.868,-0.14
3.87,-0.135
3.872,-0.125
3.874,-0.11
3.876,-0.09
3.878,-0.065
3.88,-0.045
3.882,-0.025
3.884,-0.01
3.886,0
3.888,0
3.89,0
3.892,-0.005
3.894,-0.015
3.896,-0.03
3.898,-0.045
3.9,-0.065
3.902,-0.08
3.904,-0.095
3.906,-0.1
3.908,-0.105
3.91,-0.1
3.912,-0.085
3.914,-0.07
3.916,-0.05
3.918,-0.03
3.92,-0.015
3.922,0
3.924,0.005
3.926,0.01
3.928,0.01
3.93,0.005
3.932,-0.005
3.934,-0.01
3.936,-0.02
3.938,-0.02
3.94,-0.025
3.942,-0.02
3.944,-0.02
3.946,-0.015
3.948,-0.005
3.95,0
3.952,0.005
3.954,0.01
3.956,0.01
3.958,0.01
3.96,0.005
3.962,-0.005
3.964,-0.015
3.966,-0.025
3.968,-0.04
3.97,-0.05
3.972,-0.06
3.974,-0.065
3.976,-0.07
3.978,-0.07
3.98,-0.075
3.982,-0.075
3.984,-0.075
3.986,-0.08
3.988,-0.085
3.99,-0.085
3.992,-0.085
3.994,-0.085
3.996,-0.085
3.998,-0.08
4,-0.075
4.002,-0.075
4.004,-0.07
4.006,-0.07
4.008,-0.07
4.01,-0.07
4.012,-0.07
4.014,-0.07
4.016,-0.065
4.018,-0.055
4.02,-0.04
4.022,-0.015
4.024,0.01
4.026,0.045
4.028,0.08
4.03,0.115
4.032,0.145
4.034,0.175
4.036,0.2
4.038,0.215
4.04,0.22
4.042,0.21
4.044,0.185
4.046,0.145
4.048,0.09
4.05,0.02
4.052,-0.065
4.054,-0.155
4.056,-0.25
4.058,-0.34
4.06,-0.42
4.062,-0.49
4.064,-0.54
4.066,-0.57
4.068,-0.58
4.07,-0.57
4.072,-0.54
4.074,-0.495
4.076,-0.445
4.078,-0.39
4.08,-0.335
4.082,-0.28
4.084,-0.235
4.086,-0.2
4.088,-0.17
4.09,-0.15
4.092,-0.13
4.094,-0.115
4.096,-0.1
4.098,-0.085
4.1,-0.075
4.102,-0.065
4.104,-0.055
4.106,-0.045
4.108,-0.045
4.11,-0.045
4.112,-0.05
4.114,-0.055
4.116,-0.06
4.118,-0.065
4.12,-0.065
4.122,-0.06
4.124,-0.055
4.126,-0.05
4.128,-0.04
4.13,-0.025
4.132,-0.01
4.134,0
4.136,0.01
4.138,0.02
4.14,0.025
4.142,0.025
4.144,0.02
4.146,0.015
4.148,0
4.15,-0.015
4.152,-0.025
4.154,-0.035
4.156,-0.035
4.158,-0.03
4.16,-0.015
4.162,0.005
4.164,0.025
4.166,0.045
4.168,0.055
4.17,0.065
4.172,0.06
4.174,0.055
4.176,0.045
4.178,0.03
4.18,0.025
4.182,0.02
4.184,0.02
4.186,0.025
4.188,0.03
4.19,0.035
4.192,0.035
4.194,0.03
4.196,0.025
4.198,0.02
4.2,0.015
4.202,0.015
4.204,0.025
4.206,0.035
4.208,0.055
4.21,0.07
4.212,0.09
4.214,0.1
4.216,0.105
4.218,0.105
4.22,0.1
4.222,0.09
4.224,0.085
4.226,0.085
4.228,0.09
4.23,0.1
4.232,0.11
4.234,0.12
4.236,0.13
4.238,0.14
4.24,0.14
4.242,0.145
4.244,0.14
4.246,0.14
4.248,0.14
4.25,0.145
4.252,0.145
4.254,0.155
4.256,0.16
4.258,0.165
4.26,0.175
4.262,0.185
4.264,0.195
4.266,0.205
4.268,0.22
4.27,0.23
4.272,0.245
4.274,0.255
4.276,0.26
4.278,0.265
4.28,0.265
4.282,0.265
4.284,0.265
4.286,0.265
4.288,0.275
4.29,0.28
4.292,0.295
4.294,0.31
4.296,0.32
4.298,0.33
4.3,0.335
4.302,0.335
4.304,0.325
4.306,0.32
4.308,0.31
4.31,0.3
4.312,0.295
4.314,0.295
4.316,0.29
4.318,0.295
4.32,0.295
4.322,0.295
4.324,0.29
4.326,0.285
4.328,0.28
4.33,0.275
4.332,0.265
4.334,0.26
4.336,0.25
4.338,0.24
4.34,0.23
4.342,0.215
4.344,0.2
4.346,0.18
4.348,0.16
4.35,0.14
4.352,0.12
4.354,0.105
4.356,0.09
4.358,0.08
4.36,0.075
4.362,0.07
4.364,0.06
4.366,0.055
4.368,0.045
4.37,0.03
4.372,0.02
4.374,0.01
4.376,0
4.378,-0.005
4.38,-0.005
4.382,-0.005
4.384,0.005
4.386,0.01
4.388,0.015
4.39,0.015
4.392,0.01
4.394,0.005
4.396,-0.01
4.398,-0.02
4.4,-0.03
4.402,-0.04
4.404,-0.045
4.406,-0.04
4.408,-0.035
4.41,-0.02
4.412,-0.01
4.414,0.005
4.416,0.01
4.418,0.015
4.42,0.01
4.422,0.005
4.424,0
4.426,-0.01
4.428,-0.015
4.43,-0.025
4.432,-0.025
4.434,-0.03
4.436,-0.03
4.438,-0.03
4.44,-0.035
4.442,-0.04
4.444,-0.04
4.446,-0.04
4.448,-0.04
4.45,-0.035
4.452,-0.025
4.454,-0.015
4.456,-0.005
4.458,0.01
4.46,0.02
4.462,0.025
4.464,0.025
4.466,0.02
4.468,0.01
4.47,0.005
4.472,0
4.474,-0.005
4.476,-0.005
4.478,0
4.48,0.005
4.482,0.015
4.484,0.015
4.486,0.015
4.488,0.01
4.49,0
4.492,-0.01
4.494,-0.025
4.496,-0.035
4.498,-0.04
4.5,-0.04
4.502,-0.03
4.504,-0.02
4.506,-0.005
4.508,0.01
4.51,0.025
4.512,0.03
4.514,0.035
4.516,0.035
4.518,0.03
4.52,0.02
4.522,0.015
4.524,0.01
4.526,0.01
4.528,0.015
4.53,0.02
4.532,0.025
4.534,0.03
4.536,0.03
4.538,0.025
4.54,0.015
4.542,0
4.544,-0.01
4.546,-0.025
4.548,-0.035
4.55,-0.035
4.552,-0.03
4.554,-0.02
4.556,0
4.558,0.02
4.56,0.04
4.562,0.055
4.564,0.065
4.566,0.07
4.568,0.065
4.57,0.055
4.572,0.04
4.574,0.02
4.576,0.005
4.578,-0.01
4.58,-0.02
4.582,-0.025
4.584,-0.025
4.586,-0.025
4.588,-0.02
4.59,-0.02
4.592,-0.015
4.594,-0.015
4.596,-0.02
4.598,-0.02
4.6,-0.02
4.602,-0.02
4.604,-0.02
4.606,-0.015
4.608,-0.01
4.61,0
4.612,0.005
4.614,0.01
4.616,0.015
4.618,0.01
4.62,0.005
4.622,0
4.624,-0.005
4.626,-0.015
4.628,-0.02
4.63,-0.02
4.632,-0.025
4.634,-0.025
4.636,-0.02
4.638,-0.02
4.64,-0.02
4.642,-0.025
4.644,-0.025
4.646,-0.03
4.648,-0.03
4.65,-0.03
4.652,-0.03
4.654,-0.03
4.656,-0.025
4.658,-0.025
4.66,-0.02
4.662,-0.02
4.664,-0.02
4.666,-0.02
4.668,-0.02
4.67,-0.02
4.672,-0.02
4.674,-0.015
4.676,-0.01
4.678,-0.01
4.68,-0.005
4.682,-0.005
4.684,-0.005
4.686,-0.005
4.688,-0.005
4.69,-0.005
4.692,-0.005
4.694,-0.005
4.696,-0.005
4.698,-0.005
4.7,-0.015
4.702,-0.02
4.704,-0.03
4.706,-0.04
4.708,-0.05
4.71,-0.055
4.712,-0.055
4.714,-0.05
4.716,-0.04
4.718,-0.03
4.72,-0.02
4.722,-0.015
4.724,-0.015
4.726,-0.02
4.728,-0.03
4.73,-0.04
4.732,-0.05
4.734,-0.055
4.736,-0.055
4.738,-0.05
4.74,-0.035
4.742,-0.02
4.744,-0.005
4.746,0.005
4.748,0.015
4.75,0.015
4.752,0.015
4.754,0.005
4.756,0
4.758,-0.005
4.76,-0.01
4.762,-0.015
4.764,-0.015
4.766,-0.015
4.768,-0.02
4.77,-0.02
4.772,-0.03
4.774,-0.035
4.776,-0.045
4.778,-0.05
4.78,-0.055
4.782,-0.055
4.784,-0.05
4.786,-0.045
4.788,-0.04
4.79,-0.035
4.792,-0.03
4.794,-0.03
4.796,-0.03
4.798,-0.035
4.8,-0.045
4.802,-0.05
4.804,-0.055
4.806,-0.055
4.808,-0.055
4.81,-0.05
4.812,-0.045
4.814,-0.035
4.816,-0.025
4.818,-0.02
4.82,-0.02
4.822,-0.02
4.824,-0.02
4.826,-0.02
4.828,-0.025
4.83,-0.025
4.832,-0.025
4.834,-0.025
4.836,-0.025
4.838,-0.025
4.84,-0.025
4.842,-0.025
4.844,-0.03
4.846,-0.035
4.848,-0.04
4.85,-0.045
4.852,-0.045
4.854,-0.04
4.856,-0.035
4.858,-0.025
4.86,-0.02
4.862,-0.015
4.864,-0.01
4.866,-0.01
4.868,-0.015
4.87,-0.02
4.872,-0.03
4.874,-0.04
4.876,-0.045
4.878,-0.05
4.88,-0.055
4.882,-0.055
4.884,-0.06
4.886,-0.06
4.888,-0.055
4.89,-0.055
4.892,-0.05
4.894,-0.04
4.896,-0.03
4.898,-0.02
4.9,-0.01
4.902,-0.005
4.904,0
4.906,0
4.908,-0.005
4.91,-0.015
4.912,-0.03
4.914,-0.04
4.916,-0.05
4.918,-0.055
4.92,-0.055
4.922,-0.05
4.924,-0.04
4.926,-0.03
4.928,-0.02
4.93,-0.015
4.932,-0.01
4.934,-0.01
4.936,-0.015
4.938,-0.025
4.94,-0.03
4.942,-0.035
4.944,-0.04
4.946,-0.045
4.948,-0.05
4.95,-0.05
4.952,-0.05
4.954,-0.05
4.956,-0.045
4.958,-0.045
4.96,-0.04
4.962,-0.03
4.964,-0.02
4.966,-0.015
4.968,-0.005
4.97,0
4.972,0
4.974,-0.005
4.976,-0.01
4.978,-0.02
4.98,-0.03
4.982,-0.04
4.984,-0.04
4.986,-0.03
4.988,-0.015
4.99,0
4.992,0.02
4.994,0.04
4.996,0.05
4.998,0.055
5,0.05
5.002,0.04
5.004,0.02
5.006,0
5.008,-0.015
5.01,-0.025
5.012,-0.03
5.014,-0.025
5.016,-0.015
5.018,0
5.02,0.01
5.022,0.02
5.024,0.025
5.026,0.025
5.028,0.02
5.03,0.01
5.032,-0.005
5.034,-0.02
5.036,-0.035
5.038,-0.05
5.04,-0.06
5.042,-0.065
5.044,-0.07
5.046,-0.07
5.048,-0.065
5.05,-0.055
5.052,-0.04
5.054,-0.03
5.056,-0.015
5.058,-0.005
5.06,-0.005
5.062,-0.005
5.064,-0.015
5.066,-0.025
5.068,-0.04
5.07,-0.055
5.072,-0.065
5.074,-0.065
5.076,-0.065
5.078,-0.06
5.08,-0.05
5.082,-0.035
5.084,-0.02
5.086,-0.01
5.088,0.005
5.09,0.015
5.092,0.03
5.094,0.045
5.096,0.065
5.098,0.085
5.1,0.11
5.102,0.135
5.104,0.16
5.106,0.18
5.108,0.185
5.11,0.185
5.112,0.17
5.114,0.145
5.116,0.105
5.118,0.055
5.12,-0.005
5.122,-0.075
5.124,-0.145
5.126,-0.22
5.128,-0.29
5.13,-0.355
5.132,-0.415
5.134,-0.465
5.136,-0.495
5.138,-0.515
5.14,-0.52
5.142,-0.51
5.144,-0.485
5.146,-0.455
5.148,-0.415
5.15,-0.37
5.152,-0.32
5.154,-0.275
5.156,-0.235
5.158,-0.195
5.16,-0.165
5.162,-0.14
5.164,-0.125
5.166,-0.115
5.168,-0.105
5.17,-0.1
5.172,-0.095
5.174,-0.085
5.176,-0.075
5.178,-0.065
5.18,-0.05
5.182,-0.035
5.184,-0.015
5.186,0
5.188,0.015
5.19,0.025
5.192,0.03
5.194,0.03
5.196,0.03
5.198,0.02
5.2,0.01
5.202,0
5.204,-0.01
5.206,-0.01
5.208,-0.01
5.21,-0.005
5.212,0.01
5.214,0.02
5.216,0.03
5.218,0.04
5.22,0.045
5.222,0.04
5.224,0.035
5.226,0.03
5.228,0.025
5.23,0.02
5.232,0.02
5.234,0.025
5.236,0.03
5.238,0.04
5.24,0.045
5.242,0.055
5.244,0.06
5.246,0.06
5.248,0.055
5.25,0.05
5.252,0.045
5.254,0.045
5.256,0.045
5.258,0.045
5.26,0.05
5.262,0.06
5.264,0.07
5.266,0.08
5.268,0.09
5.27,0.095
5.272,0.1
5.274,0.105
5.276,0.1
5.278,0.095
5.28,0.085
5.282,0.075
5.284,0.065
5.286,0.065
5.288,0.065
5.29,0.07
5.292,0.085
5.294,0.1
5.296,0.125
5.298,0.145
5.3,0.17
5.302,0.185
5.304,0.19
5.306,0.195
5.308,0.19
5.31,0.185
5.312,0.175
5.314,0.17
5.316,0.17
5.318,0.17
5.32,0.175
5.322,0.185
5.324,0.2
5.326,0.21
5.328,0.225
5.33,0.24
5.332,0.25
5.334,0.26
5.336,0.27
5.338,0.28
5.34,0.285
5.342,0.29
5.344,0.295
5.346,0.295
5.348,0.3
5.35,0.3
5.352,0.3
5.354,0.3
5.356,0.3
5.358,0.305
5.36,0.305
5.362,0.305
5.364,0.31
5.366,0.31
5.368,0.32
5.37,0.325
5.372,0.34
5.374,0.35
5.376,0.365
5.378,0.375
5.38,0.385
5.382,0.385
5.384,0.38
5.386,0.37
5.388,0.355
5.39,0.335
5.392,0.32
5.394,0.305
5.396,0.295
5.398,0.29
5.4,0.285
5.402,0.285
5.404,0.28
5.406,0.275
5.408,0.26
5.41,0.245
5.412,0.225
5.414,0.205
5.416,0.185
5.418,0.17
5.42,0.155
5.422,0.145
5.424,0.135
5.426,0.125
5.428,0.115
5.43,0.1
5.432,0.08
5.434,0.065
5.436,0.045
5.438,0.035
5.44,0.03
5.442,0.03
5.444,0.03
5.446,0.04
5.448,0.045
5.45,0.045
5.452,0.04
5.454,0.025
5.456,0.005
5.458,-0.015
5.46,-0.04
5.462,-0.06
5.464,-0.08
5.466,-0.085
5.468,-0.085
5.47,-0.08
5.472,-0.065
5.474,-0.045
5.476,-0.025
5.478,-0.005
5.48,0.01
5.482,0.02
5.484,0.025
5.486,0.02
5.488,0.01
5.49,0
5.492,-0.02
5.494,-0.035
5.496,-0.045
5.498,-0.055
5.5,-0.06
5.502,-0.065
5.504,-0.06
5.506,-0.06
5.508,-0.055
5.51,-0.055
5.512,-0.055
5.514,-0.06
5.516,-0.065
5.518,-0.07
5.52,-0.07
5.522,-0.07
5.524,-0.065
5.526,-0.055
5.528,-0.05
5.53,-0.04
5.532,-0.035
5.534,-0.03
5.536,-0.035
5.538,-0.035
5.54,-0.04
5.542,-0.04
5.544,-0.04
5.546,-0.035
5.548,-0.03
5.55,-0.025
5.552,-0.015
5.554,-0.01
5.556,-0.01
5.558,-0.015
5.56,-0.02
5.562,-0.025
5.564,-0.03
5.566,-0.035
5.568,-0.035
5.57,-0.03
5.572,-0.025
5.574,-0.02
5.576,-0.01
5.578,-0.01
5.58,-0.01
5.582,-0.015
5.584,-0.025
5.586,-0.035
5.588,-0.05
5.59,-0.06
5.592,-0.065
5.594,-0.07
5.596,-0.075
5.598,-0.075
5.6,-0.075
5.602,-0.08
5.604,-0.08
5.606,-0.085
5.608,-0.085
5.61,-0.085
5.612,-0.085
5.614,-0.08
5.616,-0.07
5.618,-0.06
5.62,-0.045
5.622,-0.03
5.624,-0.02
5.626,-0.01
5.628,0
5.63,0
5.632,0
5.634,0
5.636,-0.01
5.638,-0.015
5.64,-0.025
5.642,-0.035
5.644,-0.04
5.646,-0.05
5.648,-0.055
5.65,-0.055
5.652,-0.055
5.654,-0.055
5.656,-0.055
5.658,-0.05
5.66,-0.05
5.662,-0.05
5.664,-0.055
5.666,-0.055
5.668,-0.06
5.67,-0.065
5.672,-0.065
5.674,-0.07
5.676,-0.07
5.678,-0.07
5.68,-0.07
5.682,-0.07
5.684,-0.065
5.686,-0.065
5.688,-0.06
5.69,-0.06
5.692,-0.06
5.694,-0.06
5.696,-0.065
5.698,-0.07
5.7,-0.08
5.702,-0.09
5.704,-0.105
5.706,-0.115
5.708,-0.125
5.71,-0.13
5.712,-0.13
5.714,-0.125
5.716,-0.115
5.718,-0.1
5.72,-0.08
5.722,-0.065
5.724,-0.05
5.726,-0.045
5.728,-0.04
5.73,-0.04
5.732,-0.05
5.734,-0.06
5.736,-0.07
5.738,-0.08
5.74,-0.085
5.742,-0.09
5.744,-0.09
5.746,-0.085
5.748,-0.08
5.75,-0.075
5.752,-0.065
5.754,-0.06
5.756,-0.055
5.758,-0.05
5.76,-0.045
5.762,-0.045
5.764,-0.045
5.766,-0.05
5.768,-0.05
5.77,-0.055
5.772,-0.06
5.774,-0.065
5.776,-0.065
5.778,-0.07
5.78,-0.07
5.782,-0.065
5.784,-0.065
5.786,-0.06
5.788,-0.06
5.79,-0.06
5.792,-0.065
5.794,-0.07
5.796,-0.08
5.798,-0.09
5.8,-0.1
5.802,-0.105
5.804,-0.11
5.806,-0.11
5.808,-0.11
5.81,-0.105
5.812,-0.095
5.814,-0.09
5.816,-0.08
5.818,-0.075
5.82,-0.07
5.822,-0.06
5.824,-0.055
5.826,-0.05
5.828,-0.045
5.83,-0.045
5.832,-0.045
5.834,-0.05
5.836,-0.06
5.838,-0.075
5.84,-0.09
5.842,-0.105
5.844,-0.11
5.846,-0.115
5.848,-0.11
5.85,-0.095
5.852,-0.075
5.854,-0.055
5.856,-0.035
5.858,-0.02
5.86,-0.015
5.862,-0.02
5.864,-0.03
5.866,-0.045
5.868,-0.06
5.87,-0.075
5.872,-0.085
5.874,-0.09
5.876,-0.085
5.878,-0.075
5.88,-0.065
5.882,-0.055
5.884,-0.05
5.886,-0.05
5.888,-0.055
5.89,-0.06
5.892,-0.075
5.894,-0.085
5.896,-0.095
5.898,-0.095
5.9,-0.09
5.902,-0.085
5.904,-0.07
5.906,-0.055
5.908,-0.045
5.91,-0.04
5.912,-0.035
5.914,-0.04
5.916,-0.05
5.918,-0.065
5.92,-0.075
5.922,-0.08
5.924,-0.085
5.926,-0.085
5.928,-0.08
5.93,-0.075
5.932,-0.07
5.934,-0.065
5.936,-0.065
5.938,-0.07
5.94,-0.075
5.942,-0.08
5.944,-0.09
5.946,-0.095
5.948,-0.095
5.95,-0.09
5.952,-0.08
5.954,-0.075
5.956,-0.065
5.958,-0.055
5.96,-0.05
5.962,-0.045
5.964,-0.045
5.966,-0.045
5.968,-0.045
5.97,-0.045
5.972,-0.05
5.974,-0.05
5.976,-0.05
5.978,-0.055
5.98,-0.055
5.982,-0.06
5.984,-0.06
5.986,-0.065
5.988,-0.065
5.99,-0.07
5.992,-0.07
5.994,-0.07
5.996,-0.07
5.998,-0.075
6,-0.075
6.002,-0.075
6.004,-0.075
6.006,-0.075
6.008,-0.075
6.01,-0.07
6.012,-0.07
6.014,-0.065
6.016,-0.065
6.018,-0.065
6.02,-0.07
6.022,-0.07
6.024,-0.075
6.026,-0.075
6.028,-0.075
6.03,-0.07
6.032,-0.06
6.034,-0.05
6.036,-0.035
6.038,-0.03
6.04,-0.025
6.042,-0.03
6.044,-0.04
6.046,-0.06
6.048,-0.075
6.05,-0.095
6.052,-0.105
6.054,-0.115
6.056,-0.115
6.058,-0.105
6.06,-0.09
6.062,-0.07
6.064,-0.05
6.066,-0.035
6.068,-0.015
6.07,0
6.072,0.01
6.074,0.015
6.076,0.02
6.078,0.02
6.08,0.02
6.082,0.015
6.084,0.01
6.086,0.005
6.088,0
6.09,-0.005
6.092,-0.005
6.094,-0.005
6.096,-0.005
6.098,0.005
6.1,0.01
6.102,0.015
6.104,0.02
6.106,0.025
6.108,0.02
6.11,0.01
6.112,0
6.114,-0.015
6.116,-0.025
6.118,-0.03
6.12,-0.035
6.122,-0.035
6.124,-0.035
6.126,-0.03
6.128,-0.03
6.13,-0.035
6.132,-0.04
6.134,-0.05
6.136,-0.06
6.138,-0.065
6.14,-0.07
6.142,-0.07
6.144,-0.06
6.146,-0.05
6.148,-0.035
6.15,-0.025
6.152,-0.02
6.154,-0.02
6.156,-0.03
6.158,-0.04
6.16,-0.06
6.162,-0.075
6.164,-0.08
6.166,-0.08
6.168,-0.07
6.17,-0.05
6.172,-0.015
6.174,0.02
6.176,0.065
6.178,0.105
6.18,0.145
6.182,0.18
6.184,0.21
6.186,0.235
6.188,0.245
6.19,0.25
6.192,0.24
6.194,0.215
6.196,0.175
6.198,0.115
6.2,0.045
6.202,-0.035
6.204,-0.12
6.206,-0.2
6.208,-0.28
6.21,-0.35
6.212,-0.405
6.214,-0.445
6.216,-0.47
6.218,-0.475
6.22,-0.47
6.222,-0.455
6.224,-0.43
6.226,-0.39
6.228,-0.345
6.23,-0.3
6.232,-0.245
6.234,-0.2
6.236,-0.155
6.238,-0.12
6.24,-0.095
6.242,-0.08
6.244,-0.075
6.246,-0.08
6.248,-0.08
6.25,-0.085
6.252,-0.08
6.254,-0.075
6.256,-0.065
6.258,-0.05
6.26,-0.03
6.262,-0.02
6.264,-0.01
6.266,-0.005
6.268,-0.005
6.27,-0.01
6.272,-0.01
6.274,-0.01
6.276,-0.005
6.278,0
6.28,0.015
6.282,0.03
6.284,0.045
6.286,0.06
6.288,0.065
6.29,0.065
6.292,0.06
6.294,0.05
6.296,0.035
6.298,0.025
6.3,0.015
6.302,0.005
6.304,0.005
6.306,0.01
6.308,0.02
6.31,0.035
6.312,0.045
6.314,0.055
6.316,0.06
6.318,0.06
6.32,0.06
6.322,0.055
6.324,0.05
6.326,0.05
6.328,0.05
6.33,0.055
6.332,0.065
6.334,0.075
6.336,0.08
6.338,0.085
6.34,0.09
6.342,0.09
6.344,0.085
6.346,0.08
6.348,0.08
6.35,0.08
6.352,0.085
6.354,0.09
6.356,0.1
6.358,0.11
6.36,0.115
6.362,0.115
6.364,0.11
6.366,0.105
6.368,0.1
6.37,0.095
6.372,0.095
6.374,0.1
6.376,0.11
6.378,0.12
6.38,0.135
6.382,0.14
6.384,0.145
6.386,0.14
6.388,0.135
6.39,0.125
6.392,0.12
6.394,0.12
6.396,0.125
6.398,0.14
6.4,0.16
6.402,0.185
6.404,0.215
6.406,0.235
6.408,0.255
6.41,0.265
6.412,0.265
6.414,0.265
6.416,0.265
6.418,0.26
6.42,0.26
6.422,0.265
6.424,0.27
6.426,0.275
6.428,0.285
6.43,0.295
6.432,0.3
6.434,0.305
6.436,0.305
6.438,0.305
6.44,0.31
6.442,0.31
6.444,0.315
6.446,0.32
6.448,0.325
6.45,0.33
6.452,0.335
6.454,0.335
6.456,0.33
6.458,0.33
6.46,0.325
6.462,0.325
6.464,0.32
6.466,0.32
6.468,0.315
6.47,0.31
6.472,0.305
6.474,0.3
6.476,0.29
6.478,0.28
6.48,0.265
6.482,0.255
6.484,0.24
6.486,0.225
6.488,0.215
6.49,0.2
6.492,0.19
6.494,0.175
6.496,0.165
6.498,0.155
6.5,0.145
6.502,0.135
6.504,0.13
6.506,0.12
6.508,0.11
6.51,0.105
6.512,0.095
6.514,0.085
6.516,0.07
6.518,0.06
6.52,0.05
6.522,0.045
6.524,0.04
6.526,0.04
6.528,0.04
6.53,0.04
6.532,0.04
6.534,0.035
6.536,0.03
6.538,0.02
6.54,0.015
6.542,0.005
6.544,-0.005
6.546,-0.01
6.548,-0.01
6.55,-0.01
6.552,-0.005
6.554,-0.005
6.556,0
6.558,0
6.56,0
6.562,-0.005
6.564,-0.01
6.566,-0.01
6.568,-0.015
6.57,-0.02
6.572,-0.02
6.574,-0.02
6.576,-0.02
6.578,-0.025
6.58,-0.025
6.582,-0.025
6.584,-0.025
6.586,-0.025
6.588,-0.025
6.59,-0.02
6.592,-0.015
6.594,-0.01
6.596,-0.01
6.598,-0.01
6.6,-0.015
6.602,-0.02
6.604,-0.025
6.606,-0.03
6.608,-0.03
6.61,-0.025
6.612,-0.015
6.614,-0.005
6.616,0.005
6.618,0.015
6.62,0.02
6.622,0.02
6.624,0.015
6.626,0.005
6.628,-0.01
6.63,-0.025
6.632,-0.035
6.634,-0.045
6.636,-0.05
6.638,-0.05
6.64,-0.045
6.642,-0.04
6.644,-0.025
6.646,-0.015
6.648,0
6.65,0.01
6.652,0.025
6.654,0.035
6.656,0.045
6.658,0.05
6.66,0.05
6.662,0.04
6.664,0.03
6.666,0.02
6.668,0.005
6.67,-0.005
6.672,-0.01
6.674,-0.01
6.676,-0.005
6.678,0.005
6.68,0.02
6.682,0.03
6.684,0.04
6.686,0.04
6.688,0.035
6.69,0.025
6.692,0.01
6.694,-0.01
6.696,-0.025
6.698,-0.035
6.7,-0.035
6.702,-0.035
6.704,-0.025
6.706,-0.01
6.708,0.005
6.71,0.015
6.712,0.025
6.714,0.025
6.716,0.025
6.718,0.02
6.72,0.01
6.722,0.005
6.724,0
6.726,-0.005
6.728,-0.005
6.73,-0.005
6.732,-0.005
6.734,-0.005
6.736,0
6.738,-0.005
6.74,-0.005
6.742,-0.01
6.744,-0.015
6.746,-0.02
6.748,-0.02
6.75,-0.02
6.752,-0.02
6.754,-0.015
6.756,-0.015
6.758,-0.01
6.76,-0.015
6.762,-0.015
6.764,-0.025
6.766,-0.035
6.768,-0.05
6.77,-0.06
6.772,-0.065
6.774,-0.07
6.776,-0.065
6.778,-0.06
6.78,-0.05
6.782,-0.035
6.784,-0.025
6.786,-0.015
6.788,-0.01
6.79,-0.005
6.792,-0.01
6.794,-0.015
6.796,-0.02
6.798,-0.025
6.8,-0.03
6.802,-0.03
6.804,-0.035
6.806,-0.04
6.808,-0.05
6.81,-0.055
6.812,-0.06
6.814,-0.065
6.816,-0.065
6.818,-0.055
6.82,-0.045
6.822,-0.03
6.824,-0.015
6.826,0
6.828,0.015
6.83,0.02
6.832,0.02
6.834,0.01
6.836,0
6.838,-0.01
6.84,-0.02
6.842,-0.03
6.844,-0.035
6.846,-0.035
6.848,-0.03
6.85,-0.025
6.852,-0.015
6.854,-0.01
6.856,0
6.858,0.005
6.86,0.005
6.862,0.005
6.864,0.005
6.866,0
6.868,-0.01
6.87,-0.02
6.872,-0.03
6.874,-0.045
6.876,-0.06
6.878,-0.07
6.88,-0.075
6.882,-0.08
6.884,-0.075
6.886,-0.07
6.888,-0.065
6.89,-0.06
6.892,-0.055
6.894,-0.05
6.896,-0.05
6.898,-0.055
6.9,-0.06
6.902,-0.065
6.904,-0.07
6.906,-0.07
6.908,-0.07
6.91,-0.07
6.912,-0.065
6.914,-0.06
6.916,-0.055
6.918,-0.05
6.92,-0.05
6.922,-0.05
6.924,-0.055
6.926,-0.055
6.928,-0.055
6.93,-0.055
6.932,-0.055
6.934,-0.05
6.936,-0.05
6.938,-0.045
6.94,-0.04
6.942,-0.035
6.944,-0.03
6.946,-0.025
6.948,-0.025
6.95,-0.025
6.952,-0.03
6.954,-0.03
6.956,-0.035
6.958,-0.035
6.96,-0.035
6.962,-0.03
6.964,-0.03
6.966,-0.025
6.968,-0.02
6.97,-0.015
6.972,-0.02
6.974,-0.025
6.976,-0.035
6.978,-0.045
6.98,-0.06
6.982,-0.065
6.984,-0.07
6.986,-0.07
6.988,-0.06
6.99,-0.05
6.992,-0.04
6.994,-0.03
6.996,-0.025
6.998,-0.03
7,-0.035
7.002,-0.05
7.004,-0.065
7.006,-0.075
7.008,-0.085
7.01,-0.09
7.012,-0.085
7.014,-0.08
7.016,-0.065
7.018,-0.055
7.02,-0.05
7.022,-0.045
7.024,-0.04
7.026,-0.04
7.028,-0.045
7.03,-0.05
7.032,-0.05
7.034,-0.055
7.036,-0.055
7.038,-0.055
7.04,-0.06
7.042,-0.06
7.044,-0.06
7.046,-0.065
7.048,-0.065
7.05,-0.065
7.052,-0.06
7.054,-0.055
7.056,-0.045
7.058,-0.04
7.06,-0.035
7.062,-0.035
7.064,-0.04
7.066,-0.045
7.068,-0.055
7.07,-0.06
7.072,-0.065
7.074,-0.06
7.076,-0.055
7.078,-0.045
7.08,-0.035
7.082,-0.02
7.084,-0.01
7.086,-0.005
7.088,0
7.09,-0.005
7.092,-0.015
7.094,-0.03
7.096,-0.045
7.098,-0.055
7.1,-0.065
7.102,-0.07
7.104,-0.07
7.106,-0.065
7.108,-0.055
7.11,-0.05
7.112,-0.04
7.114,-0.035
7.116,-0.035
7.118,-0.04
7.12,-0.045
7.122,-0.055
7.124,-0.06
7.126,-0.07
7.128,-0.07
7.13,-0.07
7.132,-0.065
7.134,-0.06
7.136,-0.05
7.138,-0.04
7.14,-0.03
7.142,-0.025
7.144,-0.02
7.146,-0.015
7.148,-0.015
7.15,-0.02
7.152,-0.025
7.154,-0.03
7.156,-0.035
7.158,-0.04
7.16,-0.045
7.162,-0.05
7.164,-0.05
7.166,-0.055
7.168,-0.05
7.17,-0.05
7.172,-0.045
7.174,-0.04
7.176,-0.035
7.178,-0.03
7.18,-0.025
7.182,-0.03
7.184,-0.035
7.186,-0.04
7.188,-0.05
7.19,-0.06
7.192,-0.07
7.194,-0.075
7.196,-0.08
7.198,-0.08
7.2,-0.075
7.202,-0.07
7.204,-0.065
7.206,-0.055
7.208,-0.05
7.21,-0.045
7.212,-0.04
7.214,-0.04
7.216,-0.04
7.218,-0.04
7.22,-0.045
7.222,-0.05
7.224,-0.05
7.226,-0.055
7.228,-0.05
7.23,-0.05
7.232,-0.045
7.234,-0.04
7.236,-0.03
7.238,-0.025
7.24,-0.025
7.242,-0.025
7.244,-0.03
7.246,-0.035
7.248,-0.04
7.25,-0.045
7.252,-0.05
7.254,-0.045
7.256,-0.04
7.258,-0.025
7.26,-0.01
7.262,0.005
7.264,0.02
7.266,0.03
7.268,0.035
7.27,0.03
7.272,0.02
7.274,0.01
7.276,-0.005
7.278,-0.02
7.28,-0.03
7.282,-0.04
7.284,-0.045
7.286,-0.045
7.288,-0.045
7.29,-0.04
7.292,-0.04
7.294,-0.035
7.296,-0.035
7.298,-0.035
7.3,-0.035
7.302,-0.04
7.304,-0.04
7.306,-0.045
7.308,-0.045
7.31,-0.05
7.312,-0.05
7.314,-0.05
7.316,-0.045
7.318,-0.045
7.32,-0.045
7.322,-0.045
7.324,-0.045
7.326,-0.045
7.328,-0.045
7.33,-0.045
7.332,-0.045
7.334,-0.045
7.336,-0.035
7.338,-0.02
7.34,0
7.342,0.03
7.344,0.06
7.346,0.095
7.348,0.125
7.35,0.155
7.352,0.175
7.354,0.185
7.356,0.185
7.358,0.18
7.36,0.155
7.362,0.125
7.364,0.085
7.366,0.03
7.368,-0.025
7.37,-0.09
7.372,-0.16
7.374,-0.235
7.376,-0.305
7.378,-0.375
7.38,-0.43
7.382,-0.48
7.384,-0.515
7.386,-0.53
7.388,-0.53
7.39,-0.51
7.392,-0.475
7.394,-0.43
7.396,-0.38
7.398,-0.325
7.4,-0.27
7.402,-0.22
7.404,-0.18
7.406,-0.15
7.408,-0.125
7.41,-0.11
7.412,-0.1
7.414,-0.09
7.416,-0.08
7.418,-0.07
7.42,-0.06
7.422,-0.05
7.424,-0.04
7.426,-0.025
7.428,-0.015
7.43,-0.01
7.432,-0.005
7.434,-0.005
7.436,-0.005
7.438,-0.01
7.44,-0.015
7.442,-0.025
7.444,-0.03
7.446,-0.04
7.448,-0.045
7.45,-0.045
7.452,-0.04
7.454,-0.03
7.456,-0.02
7.458,-0.005
7.46,0.015
7.462,0.03
7.464,0.04
7.466,0.05
7.468,0.05
7.47,0.045
7.472,0.04
7.474,0.03
7.476,0.025
7.478,0.02
7.48,0.02
7.482,0.025
7.484,0.03
7.486,0.04
7.488,0.045
7.49,0.05
7.492,0.05
7.494,0.045
7.496,0.035
7.498,0.03
7.5,0.02
7.502,0.02
7.504,0.025
7.506,0.035
7.508,0.05
7.51,0.065
7.512,0.08
7.514,0.09
7.516,0.1
7.518,0.105
7.52,0.1
7.522,0.1
7.524,0.095
7.526,0.095
7.528,0.1
7.53,0.105
7.532,0.115
7.534,0.125
7.536,0.14
7.538,0.145
7.54,0.15
7.542,0.145
7.544,0.14
7.546,0.125
7.548,0.115
7.55,0.105
7.552,0.1
7.554,0.1
7.556,0.11
7.558,0.13
7.56,0.15
7.562,0.17
7.564,0.185
7.566,0.2
7.568,0.205
7.57,0.205
7.572,0.2
7.574,0.19
7.576,0.185
7.578,0.18
7.58,0.185
7.582,0.195
7.584,0.21
7.586,0.23
7.588,0.25
7.59,0.265
7.592,0.275
7.594,0.28
7.596,0.28
7.598,0.28
7.6,0.28
7.602,0.285
7.604,0.29
7.606,0.305
7.608,0.315
7.61,0.33
7.612,0.34
7.614,0.345
7.616,0.34
7.618,0.335
7.62,0.32
7.622,0.31
7.624,0.3
7.626,0.3
7.628,0.3
7.63,0.3
7.632,0.31
7.634,0.315
7.636,0.32
7.638,0.32
7.64,0.315
7.642,0.31
7.644,0.3
7.646,0.29
7.648,0.275
7.65,0.265
7.652,0.25
7.654,0.24
7.656,0.225
7.658,0.21
7.66,0.19
7.662,0.17
7.664,0.15
7.666,0.135
7.668,0.12
7.67,0.115
7.672,0.105
7.674,0.105
7.676,0.1
7.678,0.095
7.68,0.09
7.682,0.08
7.684,0.07
7.686,0.06
7.688,0.045
7.69,0.04
7.692,0.035
7.694,0.03
7.696,0.03
7.698,0.03
7.7,0.03
7.702,0.025
7.704,0.02
7.706,0.01
7.708,0
7.71,-0.005
7.712,-0.015
7.714,-0.02
7.716,-0.025
7.718,-0.025
7.72,-0.025
7.722,-0.03
7.724,-0.03
7.726,-0.035
7.728,-0.04
7.73,-0.045
7.732,-0.05
7.734,-0.05
7.736,-0.05
7.738,-0.045
7.74,-0.04
7.742,-0.03
7.744,-0.015
7.746,-0.01
7.748,-0.005
7.75,-0.005
7.752,-0.01
7.754,-0.015
7.756,-0.03
7.758,-0.04
7.76,-0.05
7.762,-0.06
7.764,-0.06
7.766,-0.06
7.768,-0.05
7.77,-0.04
7.772,-0.025
7.774,-0.015
7.776,-0.005
7.778,0
7.78,0
7.782,0
7.784,-0.005
7.786,-0.005
7.788,-0.005
7.79,-0.005
7.792,0
7.794,0.005
7.796,0.01
7.798,0.01
7.8,0.01
7.802,0.01
7.804,0
7.806,-0.01
7.808,-0.02
7.81,-0.03
7.812,-0.04
7.814,-0.04
7.816,-0.04
7.818,-0.03
7.82,-0.015
7.822,-0.005
7.824,0.01
7.826,0.02
7.828,0.03
7.83,0.03
7.832,0.03
7.834,0.025
7.836,0.02
7.838,0.015
7.84,0.01
7.842,0.005
7.844,-0.005
7.846,-0.01
7.848,-0.02
7.85,-0.03
7.852,-0.04
7.854,-0.05
7.856,-0.06
7.858,-0.06
7.86,-0.06
7.862,-0.05
7.864,-0.04
7.866,-0.025
7.868,-0.005
7.87,0.01
7.872,0.02
7.874,0.03
7.876,0.03
7.878,0.03
7.88,0.03
7.882,0.025
7.884,0.02
7.886,0.02
7.888,0.015
7.89,0.01
7.892,0.005
7.894,0
7.896,-0.01
7.898,-0.015
7.9,-0.025
7.902,-0.03
7.904,-0.035
7.906,-0.03
7.908,-0.025
7.91,-0.02
7.912,-0.01
7.914,-0.01
7.916,-0.015
7.918,-0.025
7.92,-0.035
7.922,-0.05
7.924,-0.065
7.926,-0.075
7.928,-0.075
7.93,-0.065
7.932,-0.055
7.934,-0.035
7.936,-0.02
7.938,-0.01
7.94,-0.005
7.942,-0.005
7.944,-0.01
7.946,-0.02
7.948,-0.03
7.95,-0.035
7.952,-0.04
7.954,-0.04
7.956,-0.035
7.958,-0.03
7.96,-0.03
7.962,-0.03
7.964,-0.035
7.966,-0.045
7.968,-0.05
7.97,-0.06
7.972,-0.06
7.974,-0.06
7.976,-0.05
7.978,-0.04
7.98,-0.03
7.982,-0.02
7.984,-0.015
7.986,-0.01
7.988,-0.005
7.99,-0.005
7.992,-0.005
7.994,-0.005
7.996,-0.005
7.998,-0.01
8,-0.015
8.002,-0.025
8.004,-0.035
8.006,-0.05
8.008,-0.06
8.01,-0.07
8.012,-0.07
8.014,-0.065
8.016,-0.055
8.018,-0.04
8.02,-0.025
8.022,-0.01
8.024,-0.005
8.026,0
8.028,-0.005
8.03,-0.015
8.032,-0.03
8.034,-0.04
8.036,-0.05
8.038,-0.055
8.04,-0.055
8.042,-0.05
8.044,-0.045
8.046,-0.04
8.048,-0.04
8.05,-0.04
8.052,-0.04
8.054,-0.045
8.056,-0.05
8.058,-0.055
8.06,-0.055
8.062,-0.05
8.064,-0.045
8.066,-0.04
8.068,-0.03
8.07,-0.025
8.072,-0.02
8.074,-0.015
8.076,-0.015
8.078,-0.015
8.08,-0.02
8.082,-0.025
8.084,-0.035
8.086,-0.04
8.088,-0.05
8.09,-0.055
8.092,-0.065
8.094,-0.065
8.096,-0.065
8.098,-0.06
8.1,-0.055
8.102,-0.05
8.104,-0.045
8.106,-0.04
8.108,-0.04
8.11,-0.04
8.112,-0.04
8.114,-0.045
8.116,-0.045
8.118,-0.045
8.12,-0.04
8.122,-0.035
8.124,-0.03
8.126,-0.025
8.128,-0.025
8.13,-0.03
8.132,-0.04
8.134,-0.05
8.136,-0.065
8.138,-0.075
8.14,-0.08
8.142,-0.08
8.144,-0.075
8.146,-0.065
8.148,-0.05
8.15,-0.035
8.152,-0.02
8.154,-0.015
8.156,-0.015
8.158,-0.02
8.16,-0.03
8.162,-0.045
8.164,-0.05
8.166,-0.055
8.168,-0.06
8.17,-0.055
8.172,-0.05
8.174,-0.045
8.176,-0.04
8.178,-0.035
8.18,-0.04
8.182,-0.04
8.184,-0.045
8.186,-0.045
8.188,-0.045
8.19,-0.045
8.192,-0.045
8.194,-0.04
8.196,-0.04
8.198,-0.04
8.2,-0.045
8.202,-0.055
8.204,-0.06
8.206,-0.065
8.208,-0.07
8.21,-0.07
8.212,-0.065
8.214,-0.06
8.216,-0.055
8.218,-0.055
8.22,-0.05
8.222,-0.05
8.224,-0.05
8.226,-0.05
8.228,-0.05
8.23,-0.045
8.232,-0.04
8.234,-0.03
8.236,-0.025
8.238,-0.015
8.24,-0.015
8.242,-0.015
8.244,-0.02
8.246,-0.03
8.248,-0.04
8.25,-0.05
8.252,-0.06
8.254,-0.065
8.256,-0.07
8.258,-0.07
8.26,-0.07
8.262,-0.075
8.264,-0.075
8.266,-0.08
8.268,-0.085
8.27,-0.085
8.272,-0.085
8.274,-0.085
8.276,-0.08
8.278,-0.075
8.28,-0.07
8.282,-0.065
8.284,-0.06
8.286,-0.055
8.288,-0.05
8.29,-0.05
8.292,-0.05
8.294,-0.05
8.296,-0.055
8.298,-0.055
8.3,-0.06
8.302,-0.065
8.304,-0.065
8.306,-0.065
8.308,-0.065
8.31,-0.06
8.312,-0.05
8.314,-0.04
8.316,-0.025
8.318,-0.015
8.32,-0.01
8.322,-0.005
8.324,-0.005
8.326,-0.01
8.328,-0.015
8.33,-0.025
8.332,-0.025
8.334,-0.03
8.336,-0.025
8.338,-0.015
8.34,-0.005
8.342,0
8.344,0.01
8.346,0.01
8.348,0.01
8.35,0
8.352,-0.01
8.354,-0.02
8.356,-0.03
8.358,-0.04
8.36,-0.045
8.362,-0.045
8.364,-0.04
8.366,-0.035
8.368,-0.03
8.37,-0.025
8.372,-0.025
8.374,-0.03
8.376,-0.035
8.378,-0.045
8.38,-0.055
8.382,-0.065
8.384,-0.07
8.386,-0.07
8.388,-0.07
8.39,-0.07
8.392,-0.065
8.394,-0.06
8.396,-0.055
8.398,-0.055
8.4,-0.055
8.402,-0.055
8.404,-0.05
8.406,-0.05
8.408,-0.05
8.41,-0.05
8.412,-0.05
8.414,-0.045
8.416,-0.05
8.418,-0.05
8.42,-0.05
8.422,-0.05
8.424,-0.045
8.426,-0.035
8.428,-0.02
8.43,0
8.432,0.025
8.434,0.05
8.436,0.08
8.438,0.105
8.44,0.12
8.442,0.135
8.444,0.135
8.446,0.13
8.448,0.12
8.45,0.095
8.452,0.065
8.454,0.03
8.456,-0.02
8.458,-0.075
8.46,-0.14
8.462,-0.205
8.464,-0.28
8.466,-0.35
8.468,-0.415
8.47,-0.47
8.472,-0.515
8.474,-0.54
8.476,-0.555
8.478,-0.55
8.48,-0.53
8.482,-0.495
8.484,-0.45
8.486,-0.4
8.488,-0.35
8.49,-0.295
8.492,-0.24
8.494,-0.195
8.496,-0.155
8.498,-0.12
8.5,-0.095
8.502,-0.08
8.504,-0.075
8.506,-0.07
8.508,-0.07
8.51,-0.075
8.512,-0.075
8.514,-0.075
8.516,-0.07
8.518,-0.06
8.52,-0.05
8.522,-0.04
8.524,-0.025
8.526,-0.015
8.528,-0.005
8.53,0
8.532,0.005
8.534,0.01
8.536,0.005
8.538,0.005
8.54,0
8.542,-0.005
8.544,-0.005
8.546,-0.005
8.548,0
8.55,0.005
8.552,0.01
8.554,0.02
8.556,0.025
8.558,0.035
8.56,0.04
8.562,0.04
8.564,0.04
8.566,0.04
8.568,0.04
8.57,0.035
8.572,0.04
8.574,0.04
8.576,0.045
8.578,0.05
8.58,0.06
8.582,0.065
8.584,0.07
8.586,0.07
8.588,0.07
8.59,0.07
8.592,0.07
8.594,0.07
8.596,0.07
8.598,0.07
8.6,0.075
8.602,0.08
8.604,0.085
8.606,0.09
8.608,0.09
8.61,0.09
8.612,0.09
8.614,0.09
8.616,0.09
8.618,0.095
8.62,0.1
8.622,0.11
8.624,0.12
8.626,0.125
8.628,0.13
8.63,0.13
8.632,0.125
8.634,0.115
8.636,0.1
8.638,0.09
8.64,0.08
8.642,0.08
8.644,0.085
8.646,0.095
8.648,0.11
8.65,0.125
8.652,0.145
8.654,0.155
8.656,0.165
8.658,0.17
8.66,0.17
8.662,0.165
8.664,0.16
8.666,0.16
8.668,0.16
8.67,0.17
8.672,0.18
8.674,0.2
8.676,0.22
8.678,0.24
8.68,0.26
8.682,0.275
8.684,0.29
8.686,0.3
8.688,0.305
8.69,0.31
8.692,0.315
8.694,0.32
8.696,0.325
8.698,0.33
8.7,0.33
8.702,0.335
8.704,0.335
8.706,0.335
8.708,0.33
8.71,0.325
8.712,0.32
8.714,0.315
8.716,0.315
8.718,0.315
8.72,0.315
8.722,0.315
8.724,0.31
8.726,0.305
8.728,0.295
8.73,0.28
8.732,0.26
8.734,0.24
8.736,0.22
8.738,0.21
8.74,0.2
8.742,0.195
8.744,0.195
8.746,0.195
8.748,0.2
8.75,0.2
8.752,0.195
8.754,0.185
8.756,0.17
8.758,0.155
8.76,0.135
8.762,0.115
8.764,0.1
8.766,0.09
8.768,0.08
8.77,0.07
8.772,0.06
8.774,0.045
8.776,0.03
8.778,0.01
8.78,-0.005
8.782,-0.025
8.784,-0.035
8.786,-0.04
8.788,-0.045
8.79,-0.04
8.792,-0.03
8.794,-0.02
8.796,-0.015
8.798,-0.01
8.8,-0.005
8.802,-0.01
8.804,-0.01
8.806,-0.015
8.808,-0.02
8.81,-0.02
8.812,-0.025
8.814,-0.025
8.816,-0.025
8.818,-0.03
8.82,-0.035
8.822,-0.04
8.824,-0.045
8.826,-0.045
8.828,-0.05
8.83,-0.045
8.832,-0.04
8.834,-0.035
8.836,-0.03
8.838,-0.025
8.84,-0.025
8.842,-0.03
8.844,-0.04
8.846,-0.05
8.848,-0.06
8.85,-0.075
8.852,-0.08
8.854,-0.085
8.856,-0.08
8.858,-0.07
8.86,-0.055
8.862,-0.035
8.864,-0.015
8.866,0
8.868,0.01
8.87,0.015
8.872,0.01
8.874,-0.005
8.876,-0.02
8.878,-0.035
8.88,-0.055
8.882,-0.065
8.884,-0.065
8.886,-0.06
8.888,-0.05
8.89,-0.035
8.892,-0.015
8.894,0
8.896,0.015
8.898,0.02
8.9,0.025
8.902,0.02
8.904,0.015
8.906,0.005
8.908,-0.005
8.91,-0.01
8.912,-0.015
8.914,-0.015
8.916,-0.015
8.918,-0.01
8.92,-0.01
8.922,0
8.924,0.005
8.926,0.005
8.928,0.01
8.93,0.01
8.932,0.01
8.934,0.005
8.936,0
8.938,-0.005
8.94,-0.01
8.942,-0.015
8.944,-0.02
8.946,-0.02
8.948,-0.02
8.95,-0.01
8.952,-0.005
8.954,0.005
8.956,0.015
8.958,0.02
8.96,0.025
8.962,0.03
8.964,0.035
8.966,0.035
8.968,0.03
8.97,0.03
8.972,0.035
8.974,0.035
8.976,0.04
8.978,0.045
8.98,0.055
8.982,0.06
8.984,0.06
8.986,0.055
8.988,0.045
8.99,0.035
8.992,0.015
8.994,-0.005
8.996,-0.025
8.998,-0.045
9,-0.055
9.002,-0.06
9.004,-0.055
9.006,-0.05
9.008,-0.04
9.01,-0.025
9.012,-0.015
9.014,-0.005
9.016,0.005
9.018,0.005
9.02,0.01
9.022,0.005
9.024,0.005
9.026,0.005
9.028,0.005
9.03,0.005
9.032,0
9.034,-0.005
9.036,-0.015
9.038,-0.02
9.04,-0.03
9.042,-0.035
9.044,-0.04
9.046,-0.04
9.048,-0.035
9.05,-0.03
9.052,-0.02
9.054,-0.015
9.056,-0.01
9.058,-0.01
9.06,-0.015
9.062,-0.02
9.064,-0.02
9.066,-0.02
9.068,-0.02
9.07,-0.015
9.072,-0.005
9.074,0
9.076,0.01
9.078,0.01
9.08,0.01
9.082,0.01
9.084,0.005
9.086,0
9.088,-0.005
9.09,0
9.092,0.005
9.094,0.015
9.096,0.025
9.098,0.03
9.1,0.03
9.102,0.025
9.104,0.015
9.106,0
9.108,-0.015
9.11,-0.03
9.112,-0.04
9.114,-0.04
9.116,-0.04
9.118,-0.035
9.12,-0.03
9.122,-0.03
9.124,-0.03
9.126,-0.035
9.128,-0.04
9.13,-0.05
9.132,-0.055
9.134,-0.055
9.136,-0.05
9.138,-0.04
9.14,-0.03
9.142,-0.02
9.144,-0.01
9.146,-0.01
9.148,-0.015
9.15,-0.025
9.152,-0.035
9.154,-0.05
9.156,-0.06
9.158,-0.065
9.16,-0.06
9.162,-0.055
9.164,-0.05
9.166,-0.04
9.168,-0.03
9.17,-0.02
9.172,-0.02
9.174,-0.02
9.176,-0.02
9.178,-0.02
9.18,-0.025
9.182,-0.025
9.184,-0.025
9.186,-0.025
9.188,-0.025
9.19,-0.025
9.192,-0.025
9.194,-0.02
9.196,-0.02
9.198,-0.02
9.2,-0.025
9.202,-0.025
9.204,-0.03
9.206,-0.04
9.208,-0.045
9.21,-0.05
9.212,-0.05
9.214,-0.05
9.216,-0.045
9.218,-0.035
9.22,-0.025
9.222,-0.01
9.224,0
9.226,0.01
9.228,0.01
9.23,0.01
9.232,0.005
9.234,0
9.236,-0.01
9.238,-0.02
9.24,-0.03
9.242,-0.035
9.244,-0.04
9.246,-0.045
9.248,-0.045
9.25,-0.05
9.252,-0.05
9.254,-0.05
9.256,-0.05
9.258,-0.05
9.26,-0.05
9.262,-0.045
9.264,-0.045
9.266,-0.04
9.268,-0.035
9.27,-0.025
9.272,-0.025
9.274,-0.02
9.276,-0.02
9.278,-0.025
9.28,-0.03
9.282,-0.04
9.284,-0.05
9.286,-0.065
9.288,-0.07
9.29,-0.08
9.292,-0.08
9.294,-0.08
9.296,-0.075
9.298,-0.065
9.3,-0.06
9.302,-0.05
9.304,-0.045
9.306,-0.045
9.308,-0.04
9.31,-0.04
9.312,-0.045
9.314,-0.045
9.316,-0.04
9.318,-0.04
9.32,-0.035
9.322,-0.03
9.324,-0.03
9.326,-0.03
9.328,-0.03
9.33,-0.035
9.332,-0.04
9.334,-0.05
9.336,-0.06
9.338,-0.065
9.34,-0.065
9.342,-0.065
9.344,-0.06
9.346,-0.05
9.348,-0.04
9.35,-0.025
9.352,-0.015
9.354,-0.005
9.356,0
9.358,0
9.36,-0.005
9.362,-0.015
9.364,-0.025
9.366,-0.04
9.368,-0.045
9.37,-0.055
9.372,-0.055
9.374,-0.055
9.376,-0.05
9.378,-0.045
9.38,-0.045
9.382,-0.04
9.384,-0.035
9.386,-0.035
9.388,-0.035
9.39,-0.04
9.392,-0.035
9.394,-0.035
9.396,-0.035
9.398,-0.03
9.4,-0.03
9.402,-0.03
9.404,-0.03
9.406,-0.03
9.408,-0.035
9.41,-0.035
9.412,-0.035
9.414,-0.035
9.416,-0.035
9.418,-0.03
9.42,-0.025
9.422,-0.025
9.424,-0.025
9.426,-0.025
9.428,-0.025
9.43,-0.03
9.432,-0.03
9.434,-0.035
9.436,-0.035
9.438,-0.03
9.44,-0.03
9.442,-0.025
9.444,-0.025
9.446,-0.025
9.448,-0.03
9.45,-0.03
9.452,-0.035
9.454,-0.04
9.456,-0.045
9.458,-0.045
9.46,-0.045
9.462,-0.045
9.464,-0.04
9.466,-0.04
9.468,-0.04
9.47,-0.04
9.472,-0.04
9.474,-0.04
9.476,-0.03
9.478,-0.02
9.48,-0.005
9.482,0.005
9.484,0.015
9.486,0.025
9.488,0.025
9.49,0.015
9.492,0.005
9.494,-0.01
9.496,-0.025
9.498,-0.035
9.5,-0.04
9.502,-0.035
9.504,-0.025
9.506,-0.015
9.508,0.005
9.51,0.015
9.512,0.025
9.514,0.025
9.516,0.025
9.518,0.02
9.52,0.02
9.522,0.015
9.524,0.015
9.526,0.015
9.528,0.02
9.53,0.025
9.532,0.025
9.534,0.02
9.536,0.015
9.538,0.01
9.54,0
9.542,-0.005
9.544,-0.005
9.546,-0.005
9.548,0
9.55,0
9.552,0
9.554,-0.005
9.556,-0.015
9.558,-0.035
9.56,-0.05
9.562,-0.065
9.564,-0.08
9.566,-0.08
9.568,-0.075
9.57,-0.06
9.572,-0.04
9.574,-0.02
9.576,-0.005
9.578,0.005
9.58,0.005
9.582,-0.005
9.584,-0.02
9.586,-0.04
9.588,-0.055
9.59,-0.065
9.592,-0.07
9.594,-0.07
9.596,-0.06
9.598,-0.045
9.6,-0.03
9.602,-0.01
9.604,0.01
9.606,0.03
9.608,0.05
9.61,0.07
9.612,0.095
9.614,0.125
9.616,0.155
9.618,0.185
9.62,0.21
9.622,0.225
9.624,0.225
9.626,0.205
9.628,0.17
9.63,0.115
9.632,0.04
9.634,-0.05
9.636,-0.145
9.638,-0.24
9.64,-0.33
9.642,-0.41
9.644,-0.475
9.646,-0.515
9.648,-0.54
9.65,-0.545
9.652,-0.53
9.654,-0.505
9.656,-0.47
9.658,-0.425
9.66,-0.38
9.662,-0.335
9.664,-0.295
9.666,-0.255
9.668,-0.22
9.67,-0.19
9.672,-0.16
9.674,-0.14
9.676,-0.12
9.678,-0.1
9.68,-0.09
9.682,-0.075
9.684,-0.065
9.686,-0.055
9.688,-0.045
9.69,-0.04
9.692,-0.04
9.694,-0.035
9.696,-0.035
9.698,-0.035
9.7,-0.04
9.702,-0.04
9.704,-0.04
9.706,-0.04
9.708,-0.04
9.71,-0.04
9.712,-0.035
9.714,-0.025
9.716,-0.02
9.718,-0.005
9.72,0.005
9.722,0.02
9.724,0.03
9.726,0.045
9.728,0.05
9.73,0.06
9.732,0.065
9.734,0.065
9.736,0.065
9.738,0.06
9.74,0.055
9.742,0.045
9.744,0.035
9.746,0.03
9.748,0.02
9.75,0.015
9.752,0.01
9.754,0.005
9.756,0
9.758,0
9.76,0
9.762,0
9.764,0.005
9.766,0.005
9.768,0.015
9.77,0.02
9.772,0.03
9.774,0.035
9.776,0.045
9.778,0.055
9.78,0.065
9.782,0.07
9.784,0.075
9.786,0.075
9.788,0.07
9.79,0.07
9.792,0.065
9.794,0.06
9.796,0.055
9.798,0.055
9.8,0.06
9.802,0.065
9.804,0.07
9.806,0.075
9.808,0.08
9.81,0.08
9.812,0.08
9.814,0.075
9.816,0.075
9.818,0.07
9.82,0.075
9.822,0.08
9.824,0.095
9.826,0.115
9.828,0.14
9.83,0.16
9.832,0.185
9.834,0.2
9.836,0.215
9.838,0.22
9.84,0.22
9.842,0.22
9.844,0.22
9.846,0.215
9.848,0.22
9.85,0.225
9.852,0.23
9.854,0.24
9.856,0.25
9.858,0.26
9.86,0.265
9.862,0.27
9.864,0.27
9.866,0.27
9.868,0.27
9.87,0.275
9.872,0.28
9.874,0.285
9.876,0.295
9.878,0.3
9.88,0.31
9.882,0.32
9.884,0.325
9.886,0.325
9.888,0.325
9.89,0.32
9.892,0.315
9.894,0.315
9.896,0.31
9.898,0.305
9.9,0.305
9.902,0.3
9.904,0.29
9.906,0.285
9.908,0.27
9.91,0.255
9.912,0.235
9.914,0.22
9.916,0.205
9.918,0.195
9.92,0.185
9.922,0.185
9.924,0.19
9.926,0.19
9.928,0.195
9.93,0.195
9.932,0.19
9.934,0.18
9.936,0.16
9.938,0.14
9.94,0.115
9.942,0.095
9.944,0.075
9.946,0.055
9.948,0.045
9.95,0.04
9.952,0.035
9.954,0.035
9.956,0.03
9.958,0.03
9.96,0.02
9.962,0.015
9.964,0.005
9.966,-0.005
9.968,-0.01
9.97,-0.015
9.972,-0.02
9.974,-0.02
9.976,-0.02
9.978,-0.02
9.98,-0.02
9.982,-0.02
9.984,-0.02
9.986,-0.02
9.988,-0.025
9.99,-0.025
9.992,-0.025
9.994,-0.03
9.996,-0.03
9.998,-0.035
