0,-0.145
0.002,-0.085
0.004,-0.03
0.006,0.015
0.008,0.055
0.01,0.08
0.012,0.095
0.014,0.095
0.016,0.09
0.018,0.075
0.02,0.06
0.022,0.05
0.024,0.045
0.026,0.045
0.028,0.05
0.03,0.055
0.032,0.065
0.034,0.07
0.036,0.07
0.038,0.07
0.04,0.06
0.042,0.05
0.044,0.045
0.046,0.04
0.048,0.04
0.05,0.045
0.052,0.05
0.054,0.06
0.056,0.07
0.058,0.075
0.06,0.08
0.062,0.08
0.064,0.075
0.066,0.065
0.068,0.06
0.07,0.05
0.072,0.05
0.074,0.045
0.076,0.045
0.078,0.05
0.08,0.055
0.082,0.06
0.084,0.06
0.086,0.06
0.088,0.06
0.09,0.055
0.092,0.05
0.094,0.04
0.096,0.04
0.098,0.035
0.1,0.035
0.102,0.045
0.104,0.05
0.106,0.06
0.108,0.07
0.11,0.075
0.112,0.075
0.114,0.07
0.116,0.06
0.118,0.055
0.12,0.045
0.122,0.04
0.124,0.035
0.126,0.04
0.128,0.045
0.13,0.055
0.132,0.06
0.134,0.07
0.136,0.075
0.138,0.08
0.14,0.085
0.142,0.09
0.144,0.095
0.146,0.105
0.148,0.11
0.15,0.12
0.152,0.125
0.154,0.125
0.156,0.125
0.158,0.125
0.16,0.12
0.162,0.12
0.164,0.12
0.166,0.12
0.168,0.125
0.17,0.13
0.172,0.135
0.174,0.14
0.176,0.14
0.178,0.14
0.18,0.14
0.182,0.135
0.184,0.135
0.186,0.14
0.188,0.15
0.19,0.16
0.192,0.175
0.194,0.185
0.196,0.195
0.198,0.195
0.2,0.19
0.202,0.18
0.204,0.165
0.206,0.145
0.208,0.125
0.21,0.11
0.212,0.1
0.214,0.1
0.216,0.105
0.218,0.11
0.22,0.12
0.222,0.13
0.224,0.135
0.226,0.135
0.228,0.13
0.23,0.125
0.232,0.115
0.234,0.105
0.236,0.1
0.238,0.09
0.24,0.085
0.242,0.075
0.244,0.07
0.246,0.06
0.248,0.05
0.25,0.04
0.252,0.03
0.254,0.02
0.256,0.015
0.258,0.015
0.26,0.015
0.262,0.02
0.264,0.02
0.266,0.02
0.268,0.02
0.27,0.02
0.272,0.015
0.274,0.01
0.276,0.005
0.278,0.005
0.28,0.005
0.282,0.005
0.284,0.005
0.286,0.005
0.288,0
0.29,-0.01
0.292,-0.015
0.294,-0.025
0.296,-0.03
0.298,-0.03
0.3,-0.025
0.302,-0.02
0.304,-0.015
0.306,-0.01
0.308,-0.01
0.31,-0.02
0.312,-0.03
0.314,-0.045
0.316,-0.055
0.318,-0.06
0.32,-0.06
0.322,-0.045
0.324,-0.025
0.326,-0.005
0.328,0.015
0.33,0.025
0.332,0.025
0.334,0.02
0.336,0
0.338,-0.025
0.34,-0.045
0.342,-0.065
0.344,-0.07
0.346,-0.07
0.348,-0.055
0.35,-0.04
0.352,-0.025
0.354,-0.015
0.356,-0.01
0.358,-0.015
0.36,-0.03
0.362,-0.045
0.364,-0.065
0.366,-0.08
0.368,-0.09
0.37,-0.09
0.372,-0.08
0.374,-0.065
0.376,-0.05
0.378,-0.035
0.38,-0.025
0.382,-0.015
0.384,-0.015
0.386,-0.02
0.388,-0.025
0.39,-0.035
0.392,-0.04
0.394,-0.045
0.396,-0.045
0.398,-0.04
0.4,-0.035
0.402,-0.03
0.404,-0.03
0.406,-0.025
0.408,-0.025
0.41,-0.025
0.412,-0.025
0.414,-0.03
0.416,-0.03
0.418,-0.035
0.42,-0.035
0.422,-0.04
0.424,-0.04
0.426,-0.04
0.428,-0.04
0.43,-0.04
0.432,-0.04
0.434,-0.04
0.436,-0.035
0.438,-0.035
0.44,-0.04
0.442,-0.04
0.444,-0.045
0.446,-0.05
0.448,-0.055
0.45,-0.06
0.452,-0.06
0.454,-0.055
0.456,-0.045
0.458,-0.04
0.46,-0.03
0.462,-0.025
0.464,-0.025
0.466,-0.03
0.468,-0.04
0.47,-0.055
0.472,-0.075
0.474,-0.09
0.476,-0.1
0.478,-0.105
0.48,-0.1
0.482,-0.09
0.484,-0.075
0.486,-0.055
0.488,-0.04
0.49,-0.025
0.492,-0.015
0.494,-0.005
0.496,-0.005
0.498,-0.005
0.5,-0.01
0.502,-0.015
0.504,-0.025
0.506,-0.03
0.508,-0.04
0.51,-0.045
0.512,-0.055
0.514,-0.06
0.516,-0.06
0.518,-0.06
0.52,-0.06
0.522,-0.055
0.524,-0.05
0.526,-0.04
0.528,-0.035
0.53,-0.035
0.532,-0.035
0.534,-0.035
0.536,-0.035
0.538,-0.04
0.54,-0.04
0.542,-0.035
0.544,-0.03
0.546,-0.025
0.548,-0.02
0.55,-0.02
0.552,-0.015
0.554,-0.02
0.556,-0.03
0.558,-0.04
0.56,-0.055
0.562,-0.07
0.564,-0.08
0.566,-0.09
0.568,-0.09
0.57,-0.09
0.572,-0.08
0.574,-0.075
0.576,-0.065
0.578,-0.06
0.58,-0.055
0.582,-0.055
0.584,-0.055
0.586,-0.06
0.588,-0.065
0.59,-0.065
0.592,-0.065
0.594,-0.065
0.596,-0.06
0.598,-0.055
0.6,-0.045
0.602,-0.04
0.604,-0.04
0.606,-0.045
0.608,-0.05
0.61,-0.06
0.612,-0.065
0.614,-0.075
0.616,-0.075
0.618,-0.07
0.62,-0.065
0.622,-0.055
0.624,-0.045
0.626,-0.04
0.628,-0.035
0.63,-0.04
0.632,-0.045
0.634,-0.055
0.636,-0.065
0.638,-0.07
0.64,-0.075
0.642,-0.07
0.644,-0.065
0.646,-0.06
0.648,-0.055
0.65,-0.05
0.652,-0.05
0.654,-0.055
0.656,-0.065
0.658,-0.075
0.66,-0.085
0.662,-0.095
0.664,-0.095
0.666,-0.095
0.668,-0.09
0.67,-0.08
0.672,-0.065
0.674,-0.055
0.676,-0.05
0.678,-0.045
0.68,-0.045
0.682,-0.05
0.684,-0.055
0.686,-0.065
0.688,-0.07
0.69,-0.075
0.692,-0.075
0.694,-0.07
0.696,-0.065
0.698,-0.055
0.7,-0.05
0.702,-0.045
0.704,-0.045
0.706,-0.05
0.708,-0.06
0.71,-0.075
0.712,-0.085
0.714,-0.1
0.716,-0.11
0.718,-0.11
0.72,-0.11
0.722,-0.105
0.724,-0.095
0.726,-0.085
0.728,-0.075
0.73,-0.065
0.732,-0.06
0.734,-0.055
0.736,-0.05
0.738,-0.05
0.74,-0.05
0.742,-0.045
0.744,-0.04
0.746,-0.035
0.748,-0.03
0.75,-0.025
0.752,-0.02
0.754,-0.02
0.756,-0.02
0.758,-0.025
0.76,-0.025
0.762,-0.03
0.764,-0.035
0.766,-0.04
0.768,-0.04
0.77,-0.045
0.772,-0.045
0.774,-0.045
0.776,-0.045
0.778,-0.05
0.78,-0.05
0.782,-0.05
0.784,-0.05
0.786,-0.05
0.788,-0.055
0.79,-0.055
0.792,-0.055
0.794,-0.055
0.796,-0.055
0.798,-0.06
0.8,-0.06
0.802,-0.06
0.804,-0.06
0.806,-0.06
0.808,-0.06
0.81,-0.055
0.812,-0.05
0.814,-0.045
0.816,-0.04
0.818,-0.04
0.82,-0.04
0.822,-0.04
0.824,-0.045
0.826,-0.045
0.828,-0.05
0.83,-0.045
0.832,-0.045
0.834,-0.035
0.836,-0.025
0.838,-0.02
0.84,-0.01
0.842,-0.005
0.844,-0.005
0.846,-0.005
0.848,-0.005
0.85,-0.01
0.852,-0.015
0.854,-0.01
0.856,-0.005
0.858,0.005
0.86,0.015
0.862,0.025
0.864,0.035
0.866,0.04
0.868,0.04
0.87,0.035
0.872,0.03
0.874,0.02
0.876,0.015
0.878,0.005
0.88,0
0.882,0
0.884,-0.005
0.886,-0.005
0.888,-0.01
0.89,-0.015
0.892,-0.025
0.894,-0.035
0.896,-0.045
0.898,-0.05
0.9,-0.055
0.902,-0.055
0.904,-0.05
0.906,-0.05
0.908,-0.045
0.91,-0.045
0.912,-0.04
0.914,-0.045
0.916,-0.045
0.918,-0.05
0.92,-0.05
0.922,-0.05
0.924,-0.055
0.926,-0.055
0.928,-0.055
0.93,-0.055
0.932,-0.055
0.934,-0.06
0.936,-0.06
0.938,-0.06
0.94,-0.055
0.942,-0.05
0.944,-0.05
0.946,-0.045
0.948,-0.045
0.95,-0.045
0.952,-0.05
0.954,-0.06
0.956,-0.07
0.958,-0.08
0.96,-0.08
0.962,-0.08
0.964,-0.07
0.966,-0.055
0.968,-0.04
0.97,-0.02
0.972,-0.005
0.974,0.005
0.976,0.005
0.978,0
0.98,-0.01
0.982,-0.02
0.984,-0.025
0.986,-0.025
0.988,-0.015
0.99,0.005
0.992,0.03
0.994,0.05
0.996,0.065
0.998,0.07
1,0.065
1.002,0.04
1.004,0.01
1.006,-0.03
1.008,-0.07
1.01,-0.105
1.012,-0.125
1.014,-0.135
1.016,-0.135
1.018,-0.12
1.02,-0.095
1.022,-0.07
1.024,-0.05
1.026,-0.035
1.028,-0.025
1.03,-0.025
1.032,-0.03
1.034,-0.04
1.036,-0.045
1.038,-0.05
1.04,-0.055
1.042,-0.055
1.044,-0.055
1.046,-0.05
1.048,-0.05
1.05,-0.045
1.052,-0.045
1.054,-0.04
1.056,-0.04
1.058,-0.04
1.06,-0.035
1.062,-0.025
1.064,-0.02
1.066,-0.01
1.068,0
1.07,0.005
1.072,0.01
1.074,0.01
1.076,0.01
1.078,0
1.08,-0.005
1.082,-0.02
1.084,-0.025
1.086,-0.035
1.088,-0.035
1.09,-0.035
1.092,-0.035
1.094,-0.025
1.096,-0.015
1.098,-0.005
1.1,0.005
1.102,0.02
1.104,0.03
1.106,0.035
1.108,0.04
1.11,0.04
1.112,0.035
1.114,0.03
1.116,0.015
1.118,0.005
1.12,-0.01
1.122,-0.02
1.124,-0.02
1.126,-0.02
1.128,-0.015
1.13,0
1.132,0.015
1.134,0.03
1.136,0.045
1.138,0.055
1.14,0.06
1.142,0.06
1.144,0.06
1.146,0.055
1.148,0.045
1.15,0.04
1.152,0.04
1.154,0.035
1.156,0.035
1.158,0.04
1.16,0.045
1.162,0.05
1.164,0.055
1.166,0.065
1.168,0.075
1.17,0.085
1.172,0.095
1.174,0.105
1.176,0.11
1.178,0.11
1.18,0.11
1.182,0.11
1.184,0.105
1.186,0.105
1.188,0.105
1.19,0.105
1.192,0.105
1.194,0.11
1.196,0.11
1.198,0.115
1.2,0.115
1.202,0.12
1.204,0.13
1.206,0.14
1.208,0.155
1.21,0.17
1.212,0.18
1.214,0.195
1.216,0.2
1.218,0.2
1.22,0.19
1.222,0.175
1.224,0.16
1.226,0.145
1.228,0.135
1.23,0.13
1.232,0.135
1.234,0.145
1.236,0.16
1.238,0.17
1.24,0.18
1.242,0.185
1.244,0.175
1.246,0.16
1.248,0.135
1.25,0.11
1.252,0.085
1.254,0.065
1.256,0.055
1.258,0.045
1.26,0.045
1.262,0.045
1.264,0.05
1.266,0.05
1.268,0.05
1.27,0.05
1.272,0.045
1.274,0.04
1.276,0.035
1.278,0.03
1.28,0.03
1.282,0.025
1.284,0.02
1.286,0.02
1.288,0.015
1.29,0.01
1.292,0.005
1.294,-0.005
1.296,-0.01
1.298,-0.015
1.3,-0.02
1.302,-0.025
1.304,-0.03
1.306,-0.035
1.308,-0.04
1.31,-0.04
1.312,-0.045
1.314,-0.05
1.316,-0.05
1.318,-0.05
1.32,-0.045
1.322,-0.04
1.324,-0.04
1.326,-0.035
1.328,-0.035
1.33,-0.035
1.332,-0.035
1.334,-0.04
1.336,-0.04
1.338,-0.045
1.34,-0.04
1.342,-0.04
1.344,-0.03
1.346,-0.02
1.348,-0.01
1.35,0
1.352,0.005
1.354,0.005
1.356,0
1.358,-0.01
1.36,-0.025
1.362,-0.045
1.364,-0.06
1.366,-0.07
1.368,-0.08
1.37,-0.08
1.372,-0.07
1.374,-0.055
1.376,-0.04
1.378,-0.02
1.38,-0.01
1.382,0
1.384,0.005
1.386,0
1.388,-0.01
1.39,-0.02
1.392,-0.03
1.394,-0.04
1.396,-0.045
1.398,-0.045
1.4,-0.045
1.402,-0.045
1.404,-0.04
1.406,-0.04
1.408,-0.04
1.41,-0.045
1.412,-0.05
1.414,-0.055
1.416,-0.065
1.418,-0.07
1.42,-0.08
1.422,-0.085
1.424,-0.085
1.426,-0.08
1.428,-0.07
1.43,-0.055
1.432,-0.035
1.434,-0.015
1.436,0.005
1.438,0.02
1.44,0.03
1.442,0.03
1.444,0.025
1.446,0.015
1.448,-0.005
1.45,-0.025
1.452,-0.045
1.454,-0.06
1.456,-0.07
1.458,-0.08
1.46,-0.08
1.462,-0.075
1.464,-0.065
1.466,-0.06
1.468,-0.05
1.47,-0.045
1.472,-0.04
1.474,-0.035
1.476,-0.035
1.478,-0.03
1.48,-0.03
1.482,-0.03
1.484,-0.03
1.486,-0.035
1.488,-0.035
1.49,-0.035
1.492,-0.035
1.494,-0.04
1.496,-0.04
1.498,-0.04
1.5,-0.04
1.502,-0.035
1.504,-0.03
1.506,-0.025
1.508,-0.02
1.51,-0.015
1.512,-0.01
1.514,-0.005
1.516,-0.005
1.518,-0.005
1.52,-0.01
1.522,-0.01
1.524,-0.015
1.526,-0.015
1.528,-0.015
1.53,-0.015
1.532,-0.01
1.534,-0.005
1.536,-0.005
1.538,0
1.54,0
1.542,0
1.544,-0.005
1.546,-0.01
1.548,-0.02
1.55,-0.025
1.552,-0.035
1.554,-0.04
1.556,-0.045
1.558,-0.04
1.56,-0.035
1.562,-0.025
1.564,-0.015
1.566,0
1.568,0.01
1.57,0.02
1.572,0.03
1.574,0.03
1.576,0.035
1.578,0.03
1.58,0.025
1.582,0.02
1.584,0.01
1.586,0
1.588,-0.01
1.59,-0.015
1.592,-0.02
1.594,-0.025
1.596,-0.025
1.598,-0.02
1.6,-0.015
1.602,-0.01
1.604,-0.005
1.606,-0.005
1.608,-0.005
1.61,-0.01
1.612,-0.02
1.614,-0.025
1.616,-0.035
1.618,-0.04
1.62,-0.04
1.622,-0.035
1.624,-0.025
1.626,-0.01
1.628,0.005
1.63,0.02
1.632,0.025
1.634,0.03
1.636,0.02
1.638,0.01
1.64,-0.005
1.642,-0.025
1.644,-0.035
1.646,-0.04
1.648,-0.04
1.65,-0.03
1.652,-0.015
1.654,0.005
1.656,0.02
1.658,0.035
1.66,0.04
1.662,0.045
1.664,0.04
1.666,0.035
1.668,0.025
1.67,0.02
1.672,0.015
1.674,0.015
1.676,0.015
1.678,0.02
1.68,0.025
1.682,0.025
1.684,0.025
1.686,0.025
1.688,0.025
1.69,0.025
1.692,0.02
1.694,0.02
1.696,0.02
1.698,0.025
1.7,0.025
1.702,0.025
1.704,0.03
1.706,0.03
1.708,0.03
1.71,0.03
1.712,0.03
1.714,0.03
1.716,0.025
1.718,0.015
1.72,0.01
1.722,0.005
1.724,-0.005
1.726,-0.005
1.728,-0.005
1.73,0
1.732,0.005
1.734,0.015
1.736,0.02
1.738,0.025
1.74,0.025
1.742,0.025
1.744,0.02
1.746,0.02
1.748,0.02
1.75,0.025
1.752,0.03
1.754,0.04
1.756,0.055
1.758,0.06
1.76,0.065
1.762,0.06
1.764,0.05
1.766,0.035
1.768,0.02
1.77,0.01
1.772,0
1.774,0
1.776,0.01
1.778,0.025
1.78,0.04
1.782,0.05
1.784,0.06
1.786,0.065
1.788,0.06
1.79,0.055
1.792,0.05
1.794,0.045
1.796,0.04
1.798,0.04
1.8,0.045
1.802,0.05
1.804,0.06
1.806,0.065
1.808,0.07
1.81,0.075
1.812,0.08
1.814,0.09
1.816,0.095
1.818,0.105
1.82,0.115
1.822,0.125
1.824,0.13
1.826,0.135
1.828,0.14
1.83,0.14
1.832,0.135
1.834,0.13
1.836,0.125
1.838,0.115
1.84,0.105
1.842,0.095
1.844,0.09
1.846,0.08
1.848,0.07
1.85,0.06
1.852,0.055
1.854,0.05
1.856,0.045
1.858,0.045
1.86,0.045
1.862,0.05
1.864,0.055
1.866,0.065
1.868,0.07
1.87,0.08
1.872,0.09
1.874,0.095
1.876,0.1
1.878,0.105
1.88,0.105
1.882,0.1
1.884,0.095
1.886,0.085
1.888,0.075
1.89,0.06
1.892,0.055
1.894,0.05
1.896,0.05
1.898,0.055
1.9,0.06
1.902,0.075
1.904,0.085
1.906,0.095
1.908,0.1
1.91,0.105
1.912,0.11
1.914,0.11
1.916,0.105
1.918,0.11
1.92,0.115
1.922,0.12
1.924,0.13
1.926,0.14
1.928,0.15
1.93,0.16
1.932,0.165
1.934,0.17
1.936,0.165
1.938,0.16
1.94,0.155
1.942,0.14
1.944,0.125
1.946,0.1
1.948,0.075
1.95,0.04
1.952,0.01
1.954,-0.025
1.956,-0.06
1.958,-0.085
1.96,-0.105
1.962,-0.115
1.964,-0.11
1.966,-0.105
1.968,-0.09
1.97,-0.07
1.972,-0.05
1.974,-0.035
1.976,-0.02
1.978,-0.01
1.98,-0.005
1.982,0.005
1.984,0.015
1.986,0.025
1.988,0.04
1.99,0.05
1.992,0.055
1.994,0.06
1.996,0.06
1.998,0.05
2,0.04
2.002,0.025
2.004,0.015
2.006,0.005
2.008,0.005
2.01,0.01
2.012,0.02
2.014,0.035
2.016,0.055
2.018,0.07
2.02,0.08
2.022,0.085
2.024,0.08
2.026,0.07
2.028,0.055
2.03,0.04
2.032,0.02
2.034,0.01
2.036,0
2.038,-0.005
2.04,0
2.042,0
2.044,0.01
2.046,0.015
2.048,0.025
2.05,0.03
2.052,0.03
2.054,0.03
2.056,0.025
2.058,0.02
2.06,0.015
2.062,0.01
2.064,0.005
2.066,0
2.068,0
2.07,0.005
2.072,0.01
2.074,0.02
2.076,0.035
2.078,0.045
2.08,0.055
2.082,0.06
2.084,0.065
2.086,0.06
2.088,0.055
2.09,0.045
2.092,0.04
2.094,0.035
2.096,0.035
2.098,0.035
2.1,0.045
2.102,0.06
2.104,0.07
2.106,0.085
2.108,0.09
2.11,0.095
2.112,0.095
2.114,0.09
2.116,0.085
2.118,0.075
2.12,0.075
2.122,0.075
2.124,0.08
2.126,0.085
2.128,0.095
2.13,0.105
2.132,0.11
2.134,0.11
2.136,0.11
2.138,0.105
2.14,0.095
2.142,0.09
2.144,0.08
2.146,0.075
2.148,0.07
2.15,0.07
2.152,0.08
2.154,0.085
2.156,0.095
2.158,0.105
2.16,0.11
2.162,0.11
2.164,0.11
2.166,0.105
2.168,0.1
2.17,0.09
2.172,0.085
2.174,0.075
2.176,0.075
2.178,0.075
2.18,0.075
2.182,0.08
2.184,0.085
2.186,0.085
2.188,0.085
2.19,0.08
2.192,0.075
2.194,0.07
2.196,0.06
2.198,0.05
2.2,0.045
2.202,0.04
2.204,0.03
2.206,0.025
2.208,0.015
2.21,0
2.212,-0.015
2.214,-0.03
2.216,-0.05
2.218,-0.07
2.22,-0.085
2.222,-0.095
2.224,-0.105
2.226,-0.105
2.228,-0.1
2.23,-0.095
2.232,-0.085
2.234,-0.08
2.236,-0.07
2.238,-0.07
2.24,-0.07
2.242,-0.075
2.244,-0.08
2.246,-0.09
2.248,-0.1
2.25,-0.105
2.252,-0.11
2.254,-0.11
2.256,-0.1
2.258,-0.095
2.26,-0.08
2.262,-0.07
2.264,-0.055
2.266,-0.05
2.268,-0.045
2.27,-0.05
2.272,-0.055
2.274,-0.065
2.276,-0.07
2.278,-0.08
2.28,-0.08
2.282,-0.08
2.284,-0.075
2.286,-0.07
2.288,-0.065
2.29,-0.06
2.292,-0.065
2.294,-0.07
2.296,-0.08
2.298,-0.095
2.3,-0.105
2.302,-0.11
2.304,-0.115
2.306,-0.115
2.308,-0.11
2.31,-0.105
2.312,-0.1
2.314,-0.1
2.316,-0.105
2.318,-0.11
2.32,-0.12
2.322,-0.13
2.324,-0.135
2.326,-0.135
2.328,-0.125
2.33,-0.115
2.332,-0.1
2.334,-0.085
2.336,-0.07
2.338,-0.06
2.34,-0.055
2.342,-0.06
2.344,-0.065
2.346,-0.07
2.348,-0.075
2.35,-0.08
2.352,-0.08
2.354,-0.075
2.356,-0.07
2.358,-0.065
2.36,-0.06
2.362,-0.06
2.364,-0.065
2.366,-0.07
2.368,-0.07
2.37,-0.075
2.372,-0.07
2.374,-0.06
2.376,-0.045
2.378,-0.03
2.38,-0.02
2.382,-0.005
2.384,-0.005
2.386,-0.005
2.388,-0.015
2.39,-0.03
2.392,-0.05
2.394,-0.07
2.396,-0.08
2.398,-0.09
2.4,-0.09
2.402,-0.09
2.404,-0.08
2.406,-0.075
2.408,-0.065
2.41,-0.06
2.412,-0.055
2.414,-0.055
2.416,-0.055
2.418,-0.05
2.42,-0.05
2.422,-0.045
2.424,-0.045
2.426,-0.045
2.428,-0.05
2.43,-0.05
2.432,-0.055
2.434,-0.055
2.436,-0.05
2.438,-0.045
2.44,-0.04
2.442,-0.03
2.444,-0.025
2.446,-0.02
2.448,-0.02
2.45,-0.025
2.452,-0.03
2.454,-0.04
2.456,-0.045
2.458,-0.045
2.46,-0.04
2.462,-0.03
2.464,-0.02
2.466,-0.005
2.468,0.005
2.47,0.01
2.472,0.005
2.474,-0.01
2.476,-0.025
2.478,-0.045
2.48,-0.06
2.482,-0.07
2.484,-0.07
2.486,-0.065
2.488,-0.05
2.49,-0.04
2.492,-0.035
2.494,-0.03
2.496,-0.03
2.498,-0.035
2.5,-0.045
2.502,-0.05
2.504,-0.055
2.506,-0.05
2.508,-0.045
2.51,-0.04
2.512,-0.03
2.514,-0.025
2.516,-0.025
2.518,-0.025
2.52,-0.025
2.522,-0.025
2.524,-0.025
2.526,-0.015
2.528,0
2.53,0.015
2.532,0.035
2.534,0.045
2.536,0.05
2.538,0.045
2.54,0.03
2.542,0.005
2.544,-0.02
2.546,-0.05
2.548,-0.07
2.55,-0.085
2.552,-0.085
2.554,-0.08
2.556,-0.065
2.558,-0.05
2.56,-0.03
2.562,-0.02
2.564,-0.01
2.566,-0.01
2.568,-0.015
2.57,-0.025
2.572,-0.035
2.574,-0.045
2.576,-0.045
2.578,-0.045
2.58,-0.04
2.582,-0.035
2.584,-0.03
2.586,-0.025
2.588,-0.02
2.59,-0.02
2.592,-0.025
2.594,-0.03
2.596,-0.03
2.598,-0.03
2.6,-0.03
2.602,-0.025
2.604,-0.015
2.606,-0.005
2.608,0.005
2.61,0.015
2.612,0.015
2.614,0.01
2.616,0
2.618,-0.01
2.62,-0.02
2.622,-0.035
2.624,-0.04
2.626,-0.04
2.628,-0.04
2.63,-0.03
2.632,-0.025
2.634,-0.015
2.636,-0.005
2.638,0
2.64,0
2.642,0
2.644,-0.005
2.646,-0.01
2.648,-0.015
2.65,-0.015
2.652,-0.015
2.654,-0.015
2.656,-0.01
2.658,-0.005
2.66,-0.005
2.662,0
2.664,0.005
2.666,0.005
2.668,0.005
2.67,0.01
2.672,0.01
2.674,0.015
2.676,0.02
2.678,0.03
2.68,0.035
2.682,0.045
2.684,0.05
2.686,0.05
2.688,0.055
2.69,0.055
2.692,0.055
2.694,0.05
2.696,0.05
2.698,0.055
2.7,0.055
2.702,0.055
2.704,0.055
2.706,0.055
2.708,0.05
2.71,0.04
2.712,0.035
2.714,0.025
2.716,0.02
2.718,0.02
2.72,0.025
2.722,0.035
2.724,0.05
2.726,0.07
2.728,0.085
2.73,0.095
2.732,0.1
2.734,0.095
2.736,0.09
2.738,0.075
2.74,0.06
2.742,0.05
2.744,0.04
2.746,0.035
2.748,0.03
2.75,0.035
2.752,0.035
2.754,0.035
2.756,0.035
2.758,0.035
2.76,0.035
2.762,0.03
2.764,0.03
2.766,0.03
2.768,0.03
2.77,0.035
2.772,0.035
2.774,0.03
2.776,0.025
2.778,0.02
2.78,0.01
2.782,0.005
2.784,0
2.786,-0.005
2.788,0
2.79,0
2.792,0.005
2.794,0.01
2.796,0.005
2.798,-0.005
2.8,-0.015
2.802,-0.035
2.804,-0.05
2.806,-0.07
2.808,-0.08
2.81,-0.085
2.812,-0.085
2.814,-0.075
2.816,-0.065
2.818,-0.05
2.82,-0.04
2.822,-0.025
2.824,-0.02
2.826,-0.015
2.828,-0.01
2.83,-0.01
2.832,-0.01
2.834,-0.01
2.836,-0.01
2.838,-0.01
2.84,-0.01
2.842,-0.01
2.844,-0.01
2.846,-0.01
2.848,0
2.85,0.01
2.852,0.025
2.854,0.045
2.856,0.06
2.858,0.075
2.86,0.08
2.862,0.075
2.864,0.055
2.866,0.025
2.868,-0.02
2.87,-0.065
2.872,-0.105
2.874,-0.145
2.876,-0.165
2.878,-0.175
2.88,-0.175
2.882,-0.16
2.884,-0.14
2.886,-0.12
2.888,-0.1
2.89,-0.08
2.892,-0.07
2.894,-0.065
2.896,-0.06
2.898,-0.055
2.9,-0.055
2.902,-0.05
2.904,-0.055
2.906,-0.055
2.908,-0.065
2.91,-0.08
2.912,-0.1
2.914,-0.115
2.916,-0.13
2.918,-0.14
2.92,-0.14
2.922,-0.13
2.924,-0.115
2.926,-0.095
2.928,-0.07
2.93,-0.055
2.932,-0.045
2.934,-0.04
2.936,-0.04
2.938,-0.045
2.94,-0.05
2.942,-0.055
2.944,-0.055
2.946,-0.05
2.948,-0.04
2.95,-0.035
2.952,-0.03
2.954,-0.03
2.956,-0.03
2.958,-0.04
2.96,-0.045
2.962,-0.05
2.964,-0.05
2.966,-0.05
2.968,-0.04
2.97,-0.03
2.972,-0.025
2.974,-0.015
2.976,-0.015
2.978,-0.02
2.98,-0.03
2.982,-0.04
2.984,-0.05
2.986,-0.055
2.988,-0.055
2.99,-0.055
2.992,-0.045
2.994,-0.04
2.996,-0.03
2.998,-0.03
3,-0.025
3.002,-0.03
3.004,-0.035
3.006,-0.04
3.008,-0.05
3.01,-0.05
3.012,-0.05
3.014,-0.045
3.016,-0.04
3.018,-0.025
3.02,-0.015
3.022,-0.005
3.024,0
3.026,0.01
3.028,0.01
3.03,0.01
3.032,0.01
3.034,0.01
3.036,0.01
3.038,0.02
3.04,0.03
3.042,0.045
3.044,0.065
3.046,0.085
3.048,0.1
3.05,0.115
3.052,0.12
3.054,0.12
3.056,0.115
3.058,0.105
3.06,0.09
3.062,0.08
3.064,0.075
3.066,0.07
3.068,0.075
3.07,0.085
3.072,0.095
3.074,0.11
3.076,0.125
3.078,0.135
3.08,0.14
3.082,0.145
3.084,0.145
3.086,0.14
3.088,0.135
3.09,0.13
3.092,0.12
3.094,0.115
3.096,0.11
3.098,0.105
3.1,0.105
3.102,0.105
3.104,0.105
3.106,0.105
3.108,0.11
3.11,0.105
3.112,0.105
3.114,0.1
3.116,0.09
3.118,0.085
3.12,0.075
3.122,0.07
3.124,0.06
3.126,0.055
3.128,0.05
3.13,0.045
3.132,0.04
3.134,0.035
3.136,0.03
3.138,0.03
3.14,0.025
3.142,0.025
3.144,0.025
3.146,0.025
3.148,0.02
3.15,0.02
3.152,0.01
3.154,0
3.156,-0.015
3.158,-0.03
3.16,-0.045
3.162,-0.06
3.164,-0.075
3.166,-0.085
3.168,-0.09
3.17,-0.09
3.172,-0.09
3.174,-0.085
3.176,-0.08
3.178,-0.07
3.18,-0.055
3.182,-0.045
3.184,-0.035
3.186,-0.025
3.188,-0.02
3.19,-0.015
3.192,-0.02
3.194,-0.025
3.196,-0.03
3.198,-0.04
3.2,-0.05
3.202,-0.055
3.204,-0.06
3.206,-0.06
3.208,-0.06
3.21,-0.055
3.212,-0.055
3.214,-0.05
3.216,-0.05
3.218,-0.05
3.22,-0.05
3.222,-0.05
3.224,-0.055
3.226,-0.055
3.228,-0.06
3.23,-0.065
3.232,-0.07
3.234,-0.075
3.236,-0.075
3.238,-0.08
3.24,-0.08
3.242,-0.085
3.244,-0.085
3.246,-0.085
3.248,-0.085
3.25,-0.09
3.252,-0.09
3.254,-0.095
3.256,-0.1
3.258,-0.105
3.26,-0.11
3.262,-0.115
3.264,-0.115
3.266,-0.11
3.268,-0.105
3.27,-0.095
3.272,-0.085
3.274,-0.075
3.276,-0.065
3.278,-0.055
3.28,-0.05
3.282,-0.045
3.284,-0.04
3.286,-0.04
3.288,-0.04
3.29,-0.045
3.292,-0.05
3.294,-0.05
3.296,-0.055
3.298,-0.055
3.3,-0.05
3.302,-0.045
3.304,-0.04
3.306,-0.035
3.308,-0.03
3.31,-0.03
3.312,-0.035
3.314,-0.045
3.316,-0.06
3.318,-0.075
3.32,-0.09
3.322,-0.1
3.324,-0.105
3.326,-0.1
3.328,-0.085
3.33,-0.07
3.332,-0.05
3.334,-0.03
3.336,-0.02
3.338,-0.015
3.34,-0.02
3.342,-0.035
3.344,-0.055
3.346,-0.075
3.348,-0.095
3.35,-0.105
3.352,-0.105
3.354,-0.1
3.356,-0.085
3.358,-0.065
3.36,-0.05
3.362,-0.035
3.364,-0.025
3.366,-0.025
3.368,-0.035
3.37,-0.05
3.372,-0.065
3.374,-0.08
3.376,-0.085
3.378,-0.09
3.38,-0.085
3.382,-0.07
3.384,-0.055
3.386,-0.04
3.388,-0.03
3.39,-0.025
3.392,-0.03
3.394,-0.035
3.396,-0.05
3.398,-0.07
3.4,-0.085
3.402,-0.095
3.404,-0.1
3.406,-0.095
3.408,-0.08
3.41,-0.06
3.412,-0.035
3.414,-0.01
3.416,0.01
3.418,0.025
3.42,0.025
3.422,0.015
3.424,-0.005
3.426,-0.035
3.428,-0.06
3.43,-0.085
3.432,-0.095
3.434,-0.1
3.436,-0.09
3.438,-0.07
3.44,-0.045
3.442,-0.02
3.444,0
3.446,0.015
3.448,0.015
3.45,0.01
3.452,-0.005
3.454,-0.02
3.456,-0.035
3.458,-0.045
3.46,-0.05
3.462,-0.05
3.464,-0.05
3.466,-0.045
3.468,-0.045
3.47,-0.04
3.472,-0.04
3.474,-0.045
3.476,-0.045
3.478,-0.045
3.48,-0.045
3.482,-0.04
3.484,-0.035
3.486,-0.03
3.488,-0.025
3.49,-0.025
3.492,-0.03
3.494,-0.035
3.496,-0.04
3.498,-0.045
3.5,-0.045
3.502,-0.045
3.504,-0.04
3.506,-0.03
3.508,-0.02
3.51,-0.01
3.512,0
3.514,0.01
3.516,0.015
3.518,0.02
3.52,0.02
3.522,0.02
3.524,0.015
3.526,0.01
3.528,0.005
3.53,-0.005
3.532,-0.01
3.534,-0.015
3.536,-0.015
3.538,-0.02
3.54,-0.015
3.542,-0.01
3.544,-0.005
3.546,0.005
3.548,0.015
3.55,0.02
3.552,0.025
3.554,0.03
3.556,0.03
3.558,0.03
3.56,0.025
3.562,0.02
3.564,0.01
3.566,0.005
3.568,0
3.57,-0.005
3.572,-0.01
3.574,-0.01
3.576,-0.01
3.578,-0.01
3.58,-0.005
3.582,0
3.584,0.005
3.586,0.01
3.588,0.015
3.59,0.02
3.592,0.025
3.594,0.025
3.596,0.025
3.598,0.025
3.6,0.025
3.602,0.025
3.604,0.03
3.606,0.035
3.608,0.04
3.61,0.04
3.612,0.04
3.614,0.035
3.616,0.03
3.618,0.025
3.62,0.02
3.622,0.015
3.624,0.015
3.626,0.025
3.628,0.035
3.63,0.05
3.632,0.065
3.634,0.08
3.636,0.09
3.638,0.09
3.64,0.09
3.642,0.09
3.644,0.085
3.646,0.08
3.648,0.075
3.65,0.075
3.652,0.08
3.654,0.08
3.656,0.08
3.658,0.075
3.66,0.07
3.662,0.055
3.664,0.045
3.666,0.03
3.668,0.025
3.67,0.025
3.672,0.035
3.674,0.055
3.676,0.075
3.678,0.095
3.68,0.11
3.682,0.115
3.684,0.11
3.686,0.095
3.688,0.07
3.69,0.04
3.692,0.015
3.694,-0.005
3.696,-0.015
3.698,-0.02
3.7,-0.01
3.702,0
3.704,0.02
3.706,0.035
3.708,0.045
3.71,0.05
3.712,0.05
3.714,0.045
3.716,0.04
3.718,0.03
3.72,0.025
3.722,0.025
3.724,0.025
3.726,0.03
3.728,0.035
3.73,0.04
3.732,0.045
3.734,0.045
3.736,0.04
3.738,0.035
3.74,0.03
3.742,0.02
3.744,0.015
3.746,0.01
3.748,0.01
3.75,0.015
3.752,0.02
3.754,0.025
3.756,0.03
3.758,0.035
3.76,0.035
3.762,0.035
3.764,0.035
3.766,0.03
3.768,0.03
3.77,0.035
3.772,0.05
3.774,0.065
3.776,0.085
3.778,0.11
3.78,0.13
3.782,0.155
3.784,0.17
3.786,0.175
3.788,0.175
3.79,0.16
3.792,0.14
3.794,0.11
3.796,0.075
3.798,0.035
3.8,-0.005
3.802,-0.035
3.804,-0.065
3.806,-0.08
3.808,-0.085
3.81,-0.08
3.812,-0.06
3.814,-0.035
3.816,-0.005
3.818,0.02
3.82,0.045
3.822,0.06
3.824,0.07
3.826,0.065
3.828,0.06
3.83,0.045
3.832,0.04
3.834,0.035
3.836,0.035
3.838,0.04
3.84,0.055
3.842,0.065
3.844,0.075
3.846,0.075
3.848,0.075
3.85,0.06
3.852,0.05
3.854,0.035
3.856,0.02
3.858,0.015
3.86,0.02
3.862,0.035
3.864,0.05
3.866,0.07
3.868,0.09
3.87,0.105
3.872,0.115
3.874,0.115
3.876,0.11
3.878,0.1
3.88,0.09
3.882,0.08
3.884,0.075
3.886,0.07
3.888,0.065
3.89,0.07
3.892,0.07
3.894,0.07
3.896,0.07
3.898,0.07
3.9,0.07
3.902,0.07
3.904,0.065
3.906,0.065
3.908,0.065
3.91,0.06
3.912,0.06
3.914,0.06
3.916,0.055
3.918,0.055
3.92,0.055
3.922,0.055
3.924,0.055
3.926,0.06
3.928,0.06
3.93,0.065
3.932,0.07
3.934,0.07
3.936,0.065
3.938,0.065
3.94,0.06
3.942,0.06
3.944,0.06
3.946,0.065
3.948,0.07
3.95,0.08
3.952,0.095
3.954,0.105
3.956,0.11
3.958,0.115
3.96,0.11
3.962,0.105
3.964,0.095
3.966,0.085
3.968,0.08
3.97,0.08
3.972,0.09
3.974,0.105
3.976,0.125
3.978,0.15
3.98,0.17
3.982,0.18
3.984,0.185
3.986,0.185
3.988,0.175
3.99,0.16
3.992,0.145
3.994,0.135
3.996,0.13
3.998,0.13
4,0.14
4.002,0.155
4.004,0.175
4.006,0.195
4.008,0.21
4.01,0.225
4.012,0.23
4.014,0.225
4.016,0.215
4.018,0.205
4.02,0.19
4.022,0.18
4.024,0.17
4.026,0.165
4.028,0.165
4.03,0.165
4.032,0.165
4.034,0.165
4.036,0.165
4.038,0.155
4.04,0.14
4.042,0.125
4.044,0.1
4.046,0.08
4.048,0.06
4.05,0.045
4.052,0.04
4.054,0.04
4.056,0.045
4.058,0.055
4.06,0.06
4.062,0.065
4.064,0.06
4.066,0.05
4.068,0.035
4.07,0.02
4.072,0
4.074,-0.01
4.076,-0.015
4.078,-0.015
4.08,-0.01
4.082,-0.005
4.084,0.005
4.086,0.01
4.088,0.01
4.09,0.01
4.092,0.005
4.094,0
4.096,-0.005
4.098,-0.005
4.1,0
4.102,0
4.104,0.005
4.106,0.005
4.108,0
4.11,-0.005
4.112,-0.02
4.114,-0.03
4.116,-0.04
4.118,-0.05
4.12,-0.055
4.122,-0.05
4.124,-0.045
4.126,-0.04
4.128,-0.03
4.13,-0.025
4.132,-0.02
4.134,-0.02
4.136,-0.02
4.138,-0.025
4.14,-0.025
4.142,-0.025
4.144,-0.02
4.146,-0.015
4.148,-0.01
4.15,-0.005
4.152,-0.005
4.154,-0.005
4.156,-0.01
4.158,-0.02
4.16,-0.025
4.162,-0.035
4.164,-0.045
4.166,-0.05
4.168,-0.05
4.17,-0.05
4.172,-0.05
4.174,-0.045
4.176,-0.04
4.178,-0.03
4.18,-0.025
4.182,-0.015
4.184,-0.005
4.186,0.005
4.188,0.01
4.19,0.01
4.192,0.01
4.194,0.005
4.196,-0.005
4.198,-0.02
4.2,-0.03
4.202,-0.04
4.204,-0.045
4.206,-0.045
4.208,-0.04
4.21,-0.03
4.212,-0.02
4.214,-0.005
4.216,0
4.218,0.005
4.22,0
4.222,-0.01
4.224,-0.02
4.226,-0.035
4.228,-0.045
4.23,-0.055
4.232,-0.055
4.234,-0.055
4.236,-0.05
4.238,-0.045
4.24,-0.04
4.242,-0.035
4.244,-0.03
4.246,-0.03
4.248,-0.03
4.25,-0.035
4.252,-0.04
4.254,-0.045
4.256,-0.05
4.258,-0.05
4.26,-0.05
4.262,-0.05
4.264,-0.045
4.266,-0.035
4.268,-0.025
4.27,-0.015
4.272,-0.01
4.274,-0.005
4.276,0
4.278,-0.005
4.28,-0.01
4.282,-0.02
4.284,-0.03
4.286,-0.045
4.288,-0.055
4.29,-0.06
4.292,-0.065
4.294,-0.065
4.296,-0.065
4.298,-0.06
4.3,-0.06
4.302,-0.055
4.304,-0.055
4.306,-0.06
4.308,-0.06
4.31,-0.065
4.312,-0.065
4.314,-0.07
4.316,-0.07
4.318,-0.07
4.32,-0.065
4.322,-0.065
4.324,-0.06
4.326,-0.06
4.328,-0.06
4.33,-0.06
4.332,-0.06
4.334,-0.06
4.336,-0.06
4.338,-0.06
4.34,-0.06
4.342,-0.055
4.344,-0.055
4.346,-0.05
4.348,-0.05
4.35,-0.045
4.352,-0.045
4.354,-0.05
4.356,-0.055
4.358,-0.065
4.36,-0.075
4.362,-0.085
4.364,-0.09
4.366,-0.09
4.368,-0.085
4.37,-0.08
4.372,-0.07
4.374,-0.065
4.376,-0.06
4.378,-0.065
4.38,-0.07
4.382,-0.085
4.384,-0.095
4.386,-0.11
4.388,-0.12
4.39,-0.12
4.392,-0.11
4.394,-0.1
4.396,-0.08
4.398,-0.065
4.4,-0.05
4.402,-0.045
4.404,-0.045
4.406,-0.05
4.408,-0.065
4.41,-0.075
4.412,-0.085
4.414,-0.085
4.416,-0.085
4.418,-0.075
4.42,-0.06
4.422,-0.045
4.424,-0.03
4.426,-0.025
4.428,-0.025
4.43,-0.03
4.432,-0.035
4.434,-0.045
4.436,-0.055
4.438,-0.06
4.44,-0.065
4.442,-0.06
4.444,-0.055
4.446,-0.05
4.448,-0.045
4.45,-0.04
4.452,-0.045
4.454,-0.045
4.456,-0.055
4.458,-0.06
4.46,-0.065
4.462,-0.065
4.464,-0.065
4.466,-0.055
4.468,-0.045
4.47,-0.03
4.472,-0.015
4.474,-0.005
4.476,0.005
4.478,0.005
4.48,0
4.482,-0.01
4.484,-0.025
4.486,-0.04
4.488,-0.05
4.49,-0.055
4.492,-0.06
4.494,-0.055
4.496,-0.045
4.498,-0.03
4.5,-0.015
4.502,0
4.504,0.01
4.506,0.015
4.508,0.01
4.51,0.005
4.512,-0.005
4.514,-0.02
4.516,-0.035
4.518,-0.045
4.52,-0.055
4.522,-0.06
4.524,-0.06
4.526,-0.055
4.528,-0.05
4.53,-0.04
4.532,-0.025
4.534,-0.015
4.536,-0.005
4.538,0
4.54,0.005
4.542,0.005
4.544,0
4.546,-0.005
4.548,-0.01
4.55,-0.015
4.552,-0.02
4.554,-0.02
4.556,-0.02
4.558,-0.01
4.56,-0.005
4.562,0.005
4.564,0.01
4.566,0.015
4.568,0.01
4.57,0
4.572,-0.015
4.574,-0.03
4.576,-0.05
4.578,-0.07
4.58,-0.08
4.582,-0.09
4.584,-0.09
4.586,-0.085
4.588,-0.08
4.59,-0.075
4.592,-0.07
4.594,-0.065
4.596,-0.065
4.598,-0.07
4.6,-0.075
4.602,-0.085
4.604,-0.095
4.606,-0.1
4.608,-0.11
4.61,-0.115
4.612,-0.12
4.614,-0.12
4.616,-0.115
4.618,-0.11
4.62,-0.105
4.622,-0.095
4.624,-0.09
4.626,-0.085
4.628,-0.085
4.63,-0.09
4.632,-0.1
4.634,-0.11
4.636,-0.115
4.638,-0.115
4.64,-0.11
4.642,-0.1
4.644,-0.08
4.646,-0.06
4.648,-0.04
4.65,-0.025
4.652,-0.02
4.654,-0.02
4.656,-0.02
4.658,-0.025
4.66,-0.03
4.662,-0.03
4.664,-0.025
4.666,-0.01
4.668,0
4.67,0.015
4.672,0.015
4.674,0.01
4.676,-0.01
4.678,-0.04
4.68,-0.075
4.682,-0.115
4.684,-0.145
4.686,-0.17
4.688,-0.185
4.69,-0.19
4.692,-0.19
4.694,-0.18
4.696,-0.17
4.698,-0.16
4.7,-0.155
4.702,-0.15
4.704,-0.145
4.706,-0.135
4.708,-0.13
4.71,-0.115
4.712,-0.1
4.714,-0.085
4.716,-0.07
4.718,-0.055
4.72,-0.045
4.722,-0.04
4.724,-0.04
4.726,-0.045
4.728,-0.05
4.73,-0.055
4.732,-0.055
4.734,-0.06
4.736,-0.055
4.738,-0.055
4.74,-0.05
4.742,-0.05
4.744,-0.045
4.746,-0.045
4.748,-0.045
4.75,-0.04
4.752,-0.035
4.754,-0.03
4.756,-0.025
4.758,-0.015
4.76,-0.01
4.762,-0.005
4.764,0
4.766,0
4.768,-0.005
4.77,-0.01
4.772,-0.015
4.774,-0.02
4.776,-0.025
4.778,-0.025
4.78,-0.025
4.782,-0.025
4.784,-0.02
4.786,-0.02
4.788,-0.015
4.79,-0.02
4.792,-0.025
4.794,-0.03
4.796,-0.035
4.798,-0.045
4.8,-0.05
4.802,-0.05
4.804,-0.05
4.806,-0.05
4.808,-0.04
4.81,-0.03
4.812,-0.02
4.814,-0.005
4.816,0.005
4.818,0.015
4.82,0.02
4.822,0.025
4.824,0.025
4.826,0.02
4.828,0.02
4.83,0.015
4.832,0.015
4.834,0.015
4.836,0.015
4.838,0.02
4.84,0.025
4.842,0.025
4.844,0.03
4.846,0.03
4.848,0.035
4.85,0.035
4.852,0.035
4.854,0.04
4.856,0.045
4.858,0.055
4.86,0.065
4.862,0.08
4.864,0.09
4.866,0.1
4.868,0.11
4.87,0.115
4.872,0.12
4.874,0.12
4.876,0.115
4.878,0.115
4.88,0.11
4.882,0.105
4.884,0.1
4.886,0.095
4.888,0.085
4.89,0.08
4.892,0.075
4.894,0.07
4.896,0.065
4.898,0.065
4.9,0.07
4.902,0.08
4.904,0.09
4.906,0.105
4.908,0.115
4.91,0.125
4.912,0.13
4.914,0.125
4.916,0.12
4.918,0.105
4.92,0.09
4.922,0.075
4.924,0.06
4.926,0.045
4.928,0.04
4.93,0.03
4.932,0.03
4.934,0.025
4.936,0.025
4.938,0.025
4.94,0.02
4.942,0.02
4.944,0.02
4.946,0.015
4.948,0.015
4.95,0.01
4.952,0.01
4.954,0.005
4.956,0.005
4.958,0
4.96,-0.005
4.962,-0.01
4.964,-0.01
4.966,-0.01
4.968,-0.01
4.97,-0.01
4.972,-0.01
4.974,-0.005
4.976,-0.005
4.978,-0.005
4.98,-0.005
4.982,-0.005
4.984,-0.005
4.986,0
4.988,0.01
4.99,0.02
4.992,0.03
4.994,0.045
4.996,0.05
4.998,0.055
5,0.055
5.002,0.055
5.004,0.045
5.006,0.04
5.008,0.03
5.01,0.025
5.012,0.025
5.014,0.025
5.016,0.025
5.018,0.03
5.02,0.035
5.022,0.035
5.024,0.04
5.026,0.04
5.028,0.045
5.03,0.055
5.032,0.065
5.034,0.075
5.036,0.085
5.038,0.095
5.04,0.095
5.042,0.09
5.044,0.08
5.046,0.065
5.048,0.05
5.05,0.04
5.052,0.03
5.054,0.035
5.056,0.04
5.058,0.055
5.06,0.075
5.062,0.09
5.064,0.1
5.066,0.105
5.068,0.1
5.07,0.095
5.072,0.08
5.074,0.07
5.076,0.065
5.078,0.06
5.08,0.06
5.082,0.065
5.084,0.07
5.086,0.075
5.088,0.075
5.09,0.07
5.092,0.06
5.094,0.055
5.096,0.045
5.098,0.045
5.1,0.045
5.102,0.05
5.104,0.055
5.106,0.065
5.108,0.07
5.11,0.075
5.112,0.07
5.114,0.065
5.116,0.055
5.118,0.05
5.12,0.045
5.122,0.04
5.124,0.04
5.126,0.045
5.128,0.05
5.13,0.055
5.132,0.06
5.134,0.065
5.136,0.065
5.138,0.065
5.14,0.07
5.142,0.07
5.144,0.07
5.146,0.075
5.148,0.075
5.15,0.07
5.152,0.065
5.154,0.06
5.156,0.05
5.158,0.04
5.16,0.035
5.162,0.03
5.164,0.03
5.166,0.04
5.168,0.045
5.17,0.055
5.172,0.06
5.174,0.06
5.176,0.06
5.178,0.055
5.18,0.05
5.182,0.04
5.184,0.03
5.186,0.025
5.188,0.02
5.19,0.02
5.192,0.02
5.194,0.02
5.196,0.025
5.198,0.025
5.2,0.025
5.202,0.03
5.204,0.035
5.206,0.04
5.208,0.045
5.21,0.05
5.212,0.06
5.214,0.06
5.216,0.06
5.218,0.06
5.22,0.05
5.222,0.045
5.224,0.04
5.226,0.035
5.228,0.035
5.23,0.035
5.232,0.04
5.234,0.045
5.236,0.045
5.238,0.05
5.24,0.05
5.242,0.045
5.244,0.04
5.246,0.035
5.248,0.035
5.25,0.03
5.252,0.025
5.254,0.025
5.256,0.025
5.258,0.025
5.26,0.025
5.262,0.03
5.264,0.03
5.266,0.035
5.268,0.035
5.27,0.04
5.272,0.04
5.274,0.035
5.276,0.03
5.278,0.02
5.28,0.01
5.282,0
5.284,-0.01
5.286,-0.02
5.288,-0.02
5.29,-0.015
5.292,-0.005
5.294,0.01
5.296,0.02
5.298,0.035
5.3,0.045
5.302,0.05
5.304,0.05
5.306,0.05
5.308,0.045
5.31,0.045
5.312,0.045
5.314,0.045
5.316,0.045
5.318,0.05
5.32,0.055
5.322,0.055
5.324,0.06
5.326,0.06
5.328,0.065
5.33,0.07
5.332,0.075
5.334,0.075
5.336,0.08
5.338,0.085
5.34,0.085
5.342,0.08
5.344,0.075
5.346,0.065
5.348,0.055
5.35,0.045
5.352,0.035
5.354,0.03
5.356,0.025
5.358,0.025
5.36,0.025
5.362,0.03
5.364,0.03
5.366,0.03
5.368,0.025
5.37,0.02
5.372,0.01
5.374,0
5.376,-0.01
5.378,-0.02
5.38,-0.025
5.382,-0.03
5.384,-0.03
5.386,-0.03
5.388,-0.025
5.39,-0.015
5.392,-0.005
5.394,0.005
5.396,0.015
5.398,0.02
5.4,0.02
5.402,0.02
5.404,0.015
5.406,0.01
5.408,0.005
5.41,0.005
5.412,0
5.414,0.005
5.416,0.005
5.418,0.005
5.42,0.005
5.422,0
5.424,-0.01
5.426,-0.02
5.428,-0.025
5.43,-0.035
5.432,-0.035
5.434,-0.03
5.436,-0.02
5.438,-0.005
5.44,0.01
5.442,0.025
5.444,0.035
5.446,0.035
5.448,0.035
5.45,0.03
5.452,0.03
5.454,0.03
5.456,0.04
5.458,0.055
5.46,0.075
5.462,0.09
5.464,0.105
5.466,0.11
5.468,0.095
5.47,0.07
5.472,0.03
5.474,-0.015
5.476,-0.06
5.478,-0.105
5.48,-0.135
5.482,-0.155
5.484,-0.16
5.486,-0.155
5.488,-0.145
5.49,-0.125
5.492,-0.11
5.494,-0.095
5.496,-0.08
5.498,-0.07
5.5,-0.06
5.502,-0.05
5.504,-0.035
5.506,-0.025
5.508,-0.01
5.51,0.005
5.512,0.01
5.514,0.01
5.516,0
5.518,-0.01
5.52,-0.03
5.522,-0.05
5.524,-0.065
5.526,-0.075
5.528,-0.08
5.53,-0.075
5.532,-0.065
5.534,-0.055
5.536,-0.04
5.538,-0.025
5.54,-0.015
5.542,-0.005
5.544,0
5.546,0
5.548,-0.005
5.55,-0.01
5.552,-0.02
5.554,-0.025
5.556,-0.035
5.558,-0.04
5.56,-0.045
5.562,-0.05
5.564,-0.05
5.566,-0.05
5.568,-0.045
5.57,-0.045
5.572,-0.04
5.574,-0.035
5.576,-0.035
5.578,-0.03
5.58,-0.03
5.582,-0.025
5.584,-0.02
5.586,-0.015
5.588,-0.005
5.59,0.005
5.592,0.02
5.594,0.03
5.596,0.04
5.598,0.045
5.6,0.05
5.602,0.05
5.604,0.045
5.606,0.035
5.608,0.03
5.61,0.02
5.612,0.015
5.614,0.01
5.616,0.005
5.618,0.01
5.62,0.02
5.622,0.03
5.624,0.04
5.626,0.05
5.628,0.065
5.63,0.07
5.632,0.075
5.634,0.075
5.636,0.07
5.638,0.065
5.64,0.055
5.642,0.05
5.644,0.045
5.646,0.05
5.648,0.055
5.65,0.065
5.652,0.075
5.654,0.085
5.656,0.095
5.658,0.1
5.66,0.1
5.662,0.095
5.664,0.09
5.666,0.085
5.668,0.085
5.67,0.085
5.672,0.09
5.674,0.1
5.676,0.115
5.678,0.135
5.68,0.15
5.682,0.165
5.684,0.175
5.686,0.18
5.688,0.19
5.69,0.19
5.692,0.195
5.694,0.195
5.696,0.19
5.698,0.185
5.7,0.175
5.702,0.16
5.704,0.145
5.706,0.125
5.708,0.1
5.71,0.085
5.712,0.07
5.714,0.06
5.716,0.06
5.718,0.06
5.72,0.07
5.722,0.075
5.724,0.075
5.726,0.075
5.728,0.065
5.73,0.055
5.732,0.035
5.734,0.015
5.736,0
5.738,-0.015
5.74,-0.025
5.742,-0.03
5.744,-0.035
5.746,-0.035
5.748,-0.03
5.75,-0.025
5.752,-0.025
5.754,-0.02
5.756,-0.02
5.758,-0.025
5.76,-0.03
5.762,-0.035
5.764,-0.04
5.766,-0.045
5.768,-0.05
5.77,-0.05
5.772,-0.05
5.774,-0.05
5.776,-0.05
5.778,-0.05
5.78,-0.05
5.782,-0.055
5.784,-0.06
5.786,-0.075
5.788,-0.085
5.79,-0.1
5.792,-0.115
5.794,-0.125
5.796,-0.125
5.798,-0.125
5.8,-0.115
5.802,-0.105
5.804,-0.095
5.806,-0.085
5.808,-0.075
5.81,-0.075
5.812,-0.075
5.814,-0.08
5.816,-0.085
5.818,-0.095
5.82,-0.105
5.822,-0.11
5.824,-0.115
5.826,-0.12
5.828,-0.12
5.83,-0.125
5.832,-0.125
5.834,-0.125
5.836,-0.125
5.838,-0.125
5.84,-0.125
5.842,-0.13
5.844,-0.13
5.846,-0.135
5.848,-0.135
5.85,-0.135
5.852,-0.135
5.854,-0.125
5.856,-0.115
5.858,-0.105
5.86,-0.095
5.862,-0.085
5.864,-0.08
5.866,-0.08
5.868,-0.085
5.87,-0.095
5.872,-0.105
5.874,-0.12
5.876,-0.135
5.878,-0.14
5.88,-0.145
5.882,-0.145
5.884,-0.14
5.886,-0.13
5.888,-0.125
5.89,-0.12
5.892,-0.115
5.894,-0.115
5.896,-0.115
5.898,-0.115
5.9,-0.115
5.902,-0.115
5.904,-0.115
5.906,-0.11
5.908,-0.11
5.91,-0.11
5.912,-0.11
5.914,-0.11
5.916,-0.115
5.918,-0.125
5.92,-0.135
5.922,-0.145
5.924,-0.15
5.926,-0.155
5.928,-0.155
5.93,-0.15
5.932,-0.14
5.934,-0.13
5.936,-0.115
5.938,-0.095
5.94,-0.085
5.942,-0.075
5.944,-0.07
5.946,-0.075
5.948,-0.085
5.95,-0.1
5.952,-0.12
5.954,-0.14
5.956,-0.155
5.958,-0.165
5.96,-0.17
5.962,-0.165
5.964,-0.155
5.966,-0.14
5.968,-0.125
5.97,-0.11
5.972,-0.095
5.974,-0.09
5.976,-0.085
5.978,-0.09
5.98,-0.095
5.982,-0.105
5.984,-0.11
5.986,-0.115
5.988,-0.12
5.99,-0.12
5.992,-0.12
5.994,-0.12
5.996,-0.115
5.998,-0.115
6,-0.115
6.002,-0.115
6.004,-0.115
6.006,-0.115
6.008,-0.115
6.01,-0.115
6.012,-0.11
6.014,-0.105
6.016,-0.1
6.018,-0.095
6.02,-0.095
6.022,-0.1
6.024,-0.105
6.026,-0.11
6.028,-0.115
6.03,-0.12
6.032,-0.12
6.034,-0.115
6.036,-0.105
6.038,-0.09
6.04,-0.07
6.042,-0.055
6.044,-0.045
6.046,-0.035
6.048,-0.035
6.05,-0.04
6.052,-0.05
6.054,-0.065
6.056,-0.075
6.058,-0.08
6.06,-0.085
6.062,-0.08
6.064,-0.07
6.066,-0.055
6.068,-0.04
6.07,-0.025
6.072,-0.01
6.074,0
6.076,0
6.078,0
6.08,-0.01
6.082,-0.02
6.084,-0.025
6.086,-0.035
6.088,-0.045
6.09,-0.045
6.092,-0.045
6.094,-0.045
6.096,-0.04
6.098,-0.03
6.1,-0.02
6.102,-0.015
6.104,-0.01
6.106,-0.005
6.108,-0.005
6.11,-0.01
6.112,-0.015
6.114,-0.015
6.116,-0.02
6.118,-0.015
6.12,-0.015
6.122,-0.005
6.124,0
6.126,0.005
6.128,0.01
6.13,0.01
6.132,0.005
6.134,-0.005
6.136,-0.015
6.138,-0.025
6.14,-0.03
6.142,-0.025
6.144,-0.02
6.146,-0.005
6.148,0.005
6.15,0.015
6.152,0.025
6.154,0.025
6.156,0.02
6.158,0.01
6.16,0
6.162,-0.005
6.164,-0.01
6.166,-0.01
6.168,-0.005
6.17,0.005
6.172,0.015
6.174,0.02
6.176,0.02
6.178,0.02
6.18,0.01
6.182,0.005
6.184,-0.005
6.186,-0.01
6.188,-0.015
6.19,-0.01
6.192,-0.005
6.194,0
6.196,0.005
6.198,0.01
6.2,0.02
6.202,0.025
6.204,0.03
6.206,0.035
6.208,0.045
6.21,0.055
6.212,0.07
6.214,0.08
6.216,0.085
6.218,0.085
6.22,0.08
6.222,0.075
6.224,0.06
6.226,0.045
6.228,0.03
6.23,0.02
6.232,0.015
6.234,0.01
6.236,0.015
6.238,0.02
6.24,0.03
6.242,0.04
6.244,0.045
6.246,0.055
6.248,0.06
6.25,0.065
6.252,0.065
6.254,0.07
6.256,0.07
6.258,0.075
6.26,0.075
6.262,0.075
6.264,0.075
6.266,0.07
6.268,0.07
6.27,0.065
6.272,0.07
6.274,0.07
6.276,0.08
6.278,0.085
6.28,0.095
6.282,0.1
6.284,0.095
6.286,0.09
6.288,0.08
6.29,0.065
6.292,0.05
6.294,0.04
6.296,0.035
6.298,0.03
6.3,0.04
6.302,0.045
6.304,0.055
6.306,0.06
6.308,0.06
6.31,0.055
6.312,0.04
6.314,0.02
6.316,0
6.318,-0.015
6.32,-0.025
6.322,-0.025
6.324,-0.02
6.326,-0.005
6.328,0.01
6.33,0.02
6.332,0.03
6.334,0.03
6.336,0.025
6.338,0.01
6.34,0
6.342,-0.01
6.344,-0.02
6.346,-0.02
6.348,-0.02
6.35,-0.015
6.352,-0.01
6.354,-0.01
6.356,-0.01
6.358,-0.01
6.36,-0.015
6.362,-0.015
6.364,-0.015
6.366,-0.01
6.368,0
6.37,0.01
6.372,0.025
6.374,0.04
6.376,0.05
6.378,0.055
6.38,0.055
6.382,0.055
6.384,0.05
6.386,0.045
6.388,0.045
6.39,0.045
6.392,0.05
6.394,0.055
6.396,0.055
6.398,0.05
6.4,0.04
6.402,0.015
6.404,-0.02
6.406,-0.06
6.408,-0.1
6.41,-0.135
6.412,-0.17
6.414,-0.19
6.416,-0.195
6.418,-0.19
6.42,-0.175
6.422,-0.155
6.424,-0.135
6.426,-0.115
6.428,-0.1
6.43,-0.095
6.432,-0.095
6.434,-0.1
6.436,-0.115
6.438,-0.125
6.44,-0.14
6.442,-0.15
6.444,-0.155
6.446,-0.16
6.448,-0.16
6.45,-0.155
6.452,-0.15
6.454,-0.145
6.456,-0.14
6.458,-0.135
6.46,-0.135
6.462,-0.13
6.464,-0.13
6.466,-0.13
6.468,-0.13
6.47,-0.13
6.472,-0.13
6.474,-0.125
6.476,-0.125
6.478,-0.115
6.48,-0.11
6.482,-0.1
6.484,-0.09
6.486,-0.08
6.488,-0.075
6.49,-0.07
6.492,-0.065
6.494,-0.065
6.496,-0.065
6.498,-0.065
6.5,-0.06
6.502,-0.06
6.504,-0.055
6.506,-0.05
6.508,-0.045
6.51,-0.04
6.512,-0.04
6.514,-0.04
6.516,-0.045
6.518,-0.045
6.52,-0.05
6.522,-0.05
6.524,-0.045
6.526,-0.035
6.528,-0.025
6.53,-0.005
6.532,0.01
6.534,0.03
6.536,0.045
6.538,0.055
6.54,0.06
6.542,0.06
6.544,0.06
6.546,0.06
6.548,0.055
6.55,0.06
6.552,0.06
6.554,0.065
6.556,0.075
6.558,0.08
6.56,0.085
6.562,0.09
6.564,0.09
6.566,0.085
6.568,0.08
6.57,0.075
6.572,0.065
6.574,0.06
6.576,0.06
6.578,0.06
6.58,0.065
6.582,0.07
6.584,0.085
6.586,0.1
6.588,0.115
6.59,0.13
6.592,0.145
6.594,0.155
6.596,0.165
6.598,0.17
6.6,0.165
6.602,0.16
6.604,0.155
6.606,0.15
6.608,0.145
6.61,0.145
6.612,0.145
6.614,0.155
6.616,0.165
6.618,0.175
6.62,0.19
6.622,0.205
6.624,0.215
6.626,0.22
6.628,0.225
6.63,0.225
6.632,0.22
6.634,0.215
6.636,0.21
6.638,0.2
6.64,0.19
6.642,0.18
6.644,0.165
6.646,0.155
6.648,0.145
6.65,0.14
6.652,0.135
6.654,0.135
6.656,0.135
6.658,0.135
6.66,0.135
6.662,0.13
6.664,0.12
6.666,0.11
6.668,0.095
6.67,0.08
6.672,0.06
6.674,0.045
6.676,0.035
6.678,0.025
6.68,0.025
6.682,0.025
6.684,0.03
6.686,0.035
6.688,0.04
6.69,0.04
6.692,0.04
6.694,0.035
6.696,0.03
6.698,0.025
6.7,0.025
6.702,0.025
6.704,0.025
6.706,0.025
6.708,0.03
6.71,0.035
6.712,0.035
6.714,0.03
6.716,0.03
6.718,0.02
6.72,0.015
6.722,0.005
6.724,0.005
6.726,0
6.728,0.005
6.73,0.005
6.732,0.01
6.734,0.015
6.736,0.02
6.738,0.02
6.74,0.015
6.742,0.01
6.744,0
6.746,-0.01
6.748,-0.015
6.75,-0.02
6.752,-0.02
6.754,-0.015
6.756,-0.01
6.758,0
6.76,0.005
6.762,0.015
6.764,0.02
6.766,0.02
6.768,0.015
6.77,0.005
6.772,0
6.774,-0.01
6.776,-0.02
6.778,-0.025
6.78,-0.025
6.782,-0.025
6.784,-0.025
6.786,-0.02
6.788,-0.02
6.79,-0.015
6.792,-0.015
6.794,-0.01
6.796,-0.01
6.798,-0.01
6.8,-0.005
6.802,-0.005
6.804,0
6.806,0
6.808,0
6.81,-0.005
6.812,-0.015
6.814,-0.02
6.816,-0.03
6.818,-0.035
6.82,-0.035
6.822,-0.03
6.824,-0.025
6.826,-0.01
6.828,0.005
6.83,0.02
6.832,0.025
6.834,0.03
6.836,0.02
6.838,0.005
6.84,-0.015
6.842,-0.04
6.844,-0.06
6.846,-0.075
6.848,-0.075
6.85,-0.07
6.852,-0.05
6.854,-0.03
6.856,-0.005
6.858,0.02
6.86,0.035
6.862,0.04
6.864,0.04
6.866,0.03
6.868,0.02
6.87,0.005
6.872,0
6.874,-0.005
6.876,0
6.878,0.005
6.88,0.01
6.882,0.02
6.884,0.02
6.886,0.02
6.888,0.015
6.89,0.01
6.892,0.005
6.894,0
6.896,-0.005
6.898,-0.005
6.9,-0.005
6.902,-0.005
6.904,-0.005
6.906,-0.005
6.908,-0.005
6.91,-0.01
6.912,-0.01
6.914,-0.015
6.916,-0.01
6.918,-0.01
6.92,-0.005
6.922,0.005
6.924,0.01
6.926,0.02
6.928,0.025
6.93,0.03
6.932,0.03
6.934,0.03
6.936,0.03
6.938,0.025
6.94,0.015
6.942,0.005
6.944,-0.005
6.946,-0.01
6.948,-0.015
6.95,-0.015
6.952,-0.01
6.954,0
6.956,0.01
6.958,0.02
6.96,0.03
6.962,0.035
6.964,0.035
6.966,0.03
6.968,0.025
6.97,0.015
6.972,0.005
6.974,0
6.976,0
6.978,0.005
6.98,0.015
6.982,0.025
6.984,0.03
6.986,0.035
6.988,0.03
6.99,0.025
6.992,0.015
6.994,0
6.996,-0.005
6.998,-0.01
7,-0.01
7.002,0
7.004,0.01
7.006,0.025
7.008,0.035
7.01,0.04
7.012,0.035
7.014,0.02
7.016,0.005
7.018,-0.015
7.02,-0.035
7.022,-0.045
7.024,-0.05
7.026,-0.05
7.028,-0.035
7.03,-0.02
7.032,-0.005
7.034,0.01
7.036,0.015
7.038,0.015
7.04,0.01
7.042,0
7.044,-0.01
7.046,-0.015
7.048,-0.02
7.05,-0.015
7.052,-0.005
7.054,0.005
7.056,0.015
7.058,0.025
7.06,0.03
7.062,0.03
7.064,0.025
7.066,0.015
7.068,0.005
7.07,0
7.072,-0.005
7.074,-0.01
7.076,-0.01
7.078,-0.01
7.08,-0.01
7.082,-0.005
7.084,-0.01
7.086,-0.01
7.088,-0.01
7.09,-0.01
7.092,-0.01
7.094,-0.01
7.096,-0.005
7.098,0
7.1,0
7.102,0
7.104,-0.005
7.106,-0.01
7.108,-0.02
7.11,-0.03
7.112,-0.035
7.114,-0.04
7.116,-0.04
7.118,-0.035
7.12,-0.025
7.122,-0.01
7.124,0.005
7.126,0.015
7.128,0.025
7.13,0.03
7.132,0.03
7.134,0.025
7.136,0.02
7.138,0.01
7.14,0.005
7.142,0
7.144,-0.005
7.146,-0.005
7.148,-0.005
7.15,-0.005
7.152,0
7.154,0
7.156,0
7.158,0
7.16,0
7.162,0
7.164,0.005
7.166,0.005
7.168,0.005
7.17,0.005
7.172,0.005
7.174,0.005
7.176,0
7.178,0
7.18,0
7.182,0
7.184,0
7.186,0.005
7.188,0.01
7.19,0.01
7.192,0.01
7.194,0.01
7.196,0.01
7.198,0.005
7.2,0.005
7.202,0.01
7.204,0.015
7.206,0.025
7.208,0.035
7.21,0.05
7.212,0.06
7.214,0.07
7.216,0.07
7.218,0.075
7.22,0.07
7.222,0.065
7.224,0.06
7.226,0.055
7.228,0.05
7.23,0.045
7.232,0.04
7.234,0.035
7.236,0.025
7.238,0.02
7.24,0.015
7.242,0.01
7.244,0.01
7.246,0.005
7.248,0.005
7.25,0.005
7.252,0.005
7.254,0.005
7.256,0.005
7.258,0.005
7.26,0.005
7.262,0.005
7.264,0.01
7.266,0.01
7.268,0.015
7.27,0.02
7.272,0.02
7.274,0.02
7.276,0.015
7.278,0.01
7.28,0.005
7.282,-0.005
7.284,-0.005
7.286,-0.005
7.288,-0.005
7.29,0.005
7.292,0.015
7.294,0.025
7.296,0.03
7.298,0.035
7.3,0.035
7.302,0.03
7.304,0.02
7.306,0.01
7.308,0
7.31,-0.005
7.312,-0.005
7.314,0
7.316,0.01
7.318,0.025
7.32,0.045
7.322,0.065
7.324,0.09
7.326,0.11
7.328,0.125
7.33,0.135
7.332,0.14
7.334,0.14
7.336,0.135
7.338,0.125
7.34,0.115
7.342,0.11
7.344,0.1
7.346,0.09
7.348,0.085
7.35,0.075
7.352,0.06
7.354,0.045
7.356,0.025
7.358,0
7.36,-0.03
7.362,-0.06
7.364,-0.085
7.366,-0.1
7.368,-0.11
7.37,-0.105
7.372,-0.09
7.374,-0.06
7.376,-0.025
7.378,0.01
7.38,0.04
7.382,0.065
7.384,0.075
7.386,0.075
7.388,0.06
7.39,0.04
7.392,0.02
7.394,0
7.396,-0.015
7.398,-0.015
7.4,-0.01
7.402,0.01
7.404,0.03
7.406,0.05
7.408,0.07
7.41,0.08
7.412,0.08
7.414,0.075
7.416,0.065
7.418,0.05
7.42,0.035
7.422,0.02
7.424,0.01
7.426,0.005
7.428,0
7.43,0
7.432,0.005
7.434,0.005
7.436,0.01
7.438,0.015
7.44,0.02
7.442,0.03
7.444,0.04
7.446,0.055
7.448,0.065
7.45,0.075
7.452,0.08
7.454,0.08
7.456,0.075
7.458,0.065
7.46,0.05
7.462,0.035
7.464,0.025
7.466,0.02
7.468,0.02
7.47,0.03
7.472,0.035
7.474,0.045
7.476,0.055
7.478,0.06
7.48,0.06
7.482,0.06
7.484,0.055
7.486,0.055
7.488,0.055
7.49,0.06
7.492,0.065
7.494,0.075
7.496,0.08
7.498,0.085
7.5,0.085
7.502,0.08
7.504,0.075
7.506,0.065
7.508,0.055
7.51,0.055
7.512,0.055
7.514,0.06
7.516,0.075
7.518,0.085
7.52,0.1
7.522,0.11
7.524,0.11
7.526,0.11
7.528,0.1
7.53,0.09
7.532,0.08
7.534,0.07
7.536,0.07
7.538,0.075
7.54,0.09
7.542,0.105
7.544,0.125
7.546,0.14
7.548,0.15
7.55,0.155
7.552,0.155
7.554,0.155
7.556,0.145
7.558,0.14
7.56,0.14
7.562,0.14
7.564,0.145
7.566,0.15
7.568,0.155
7.57,0.165
7.572,0.17
7.574,0.17
7.576,0.17
7.578,0.165
7.58,0.16
7.582,0.15
7.584,0.14
7.586,0.135
7.588,0.125
7.59,0.12
7.592,0.115
7.594,0.11
7.596,0.105
7.598,0.1
7.6,0.095
7.602,0.095
7.604,0.09
7.606,0.085
7.608,0.08
7.61,0.075
7.612,0.07
7.614,0.06
7.616,0.055
7.618,0.045
7.62,0.035
7.622,0.02
7.624,0.01
7.626,0.005
7.628,-0.005
7.63,-0.01
7.632,-0.01
7.634,-0.01
7.636,-0.005
7.638,0
7.64,0
7.642,0
7.644,-0.005
7.646,-0.01
7.648,-0.025
7.65,-0.04
7.652,-0.05
7.654,-0.065
7.656,-0.07
7.658,-0.075
7.66,-0.07
7.662,-0.06
7.664,-0.045
7.666,-0.03
7.668,-0.02
7.67,-0.01
7.672,-0.005
7.674,-0.005
7.676,-0.01
7.678,-0.02
7.68,-0.025
7.682,-0.035
7.684,-0.04
7.686,-0.045
7.688,-0.045
7.69,-0.045
7.692,-0.045
7.694,-0.045
7.696,-0.05
7.698,-0.055
7.7,-0.06
7.702,-0.06
7.704,-0.065
7.706,-0.065
7.708,-0.065
7.71,-0.06
7.712,-0.06
7.714,-0.055
7.716,-0.055
7.718,-0.055
7.72,-0.055
7.722,-0.05
7.724,-0.05
7.726,-0.045
7.728,-0.04
7.73,-0.03
7.732,-0.025
7.734,-0.02
7.736,-0.02
7.738,-0.025
7.74,-0.03
7.742,-0.035
7.744,-0.045
7.746,-0.055
7.748,-0.06
7.75,-0.065
7.752,-0.07
7.754,-0.075
7.756,-0.075
7.758,-0.075
7.76,-0.08
7.762,-0.085
7.764,-0.09
7.766,-0.095
7.768,-0.1
7.77,-0.1
7.772,-0.095
7.774,-0.09
7.776,-0.08
7.778,-0.07
7.78,-0.055
7.782,-0.045
7.784,-0.035
7.786,-0.03
7.788,-0.03
7.79,-0.03
7.792,-0.04
7.794,-0.045
7.796,-0.055
7.798,-0.065
7.8,-0.075
7.802,-0.085
7.804,-0.095
7.806,-0.1
7.808,-0.1
7.81,-0.1
7.812,-0.09
7.814,-0.08
7.816,-0.065
7.818,-0.05
7.82,-0.03
7.822,-0.02
7.824,-0.01
7.826,-0.005
7.828,-0.005
7.83,-0.01
7.832,-0.015
7.834,-0.025
7.836,-0.035
7.838,-0.04
7.84,-0.05
7.842,-0.06
7.844,-0.065
7.846,-0.07
7.848,-0.08
7.85,-0.085
7.852,-0.085
7.854,-0.085
7.856,-0.08
7.858,-0.075
7.86,-0.065
7.862,-0.055
7.864,-0.05
7.866,-0.045
7.868,-0.045
7.87,-0.05
7.872,-0.055
7.874,-0.06
7.876,-0.07
7.878,-0.07
7.88,-0.075
7.882,-0.075
7.884,-0.075
7.886,-0.08
7.888,-0.085
7.89,-0.09
7.892,-0.1
7.894,-0.11
7.896,-0.115
7.898,-0.115
7.9,-0.11
7.902,-0.1
7.904,-0.09
7.906,-0.075
7.908,-0.065
7.91,-0.055
7.912,-0.055
7.914,-0.06
7.916,-0.07
7.918,-0.085
7.92,-0.095
7.922,-0.105
7.924,-0.105
7.926,-0.105
7.928,-0.1
7.93,-0.09
7.932,-0.085
7.934,-0.08
7.936,-0.085
7.938,-0.09
7.94,-0.1
7.942,-0.11
7.944,-0.12
7.946,-0.12
7.948,-0.12
7.95,-0.115
7.952,-0.11
7.954,-0.1
7.956,-0.09
7.958,-0.085
7.96,-0.08
7.962,-0.085
7.964,-0.09
7.966,-0.1
7.968,-0.11
7.97,-0.115
7.972,-0.125
7.974,-0.13
7.976,-0.13
7.978,-0.13
7.98,-0.13
7.982,-0.125
7.984,-0.115
7.986,-0.105
7.988,-0.095
7.99,-0.08
7.992,-0.065
7.994,-0.05
7.996,-0.04
7.998,-0.035
8,-0.035
8.002,-0.045
8.004,-0.06
8.006,-0.085
8.008,-0.105
8.01,-0.125
8.012,-0.14
8.014,-0.145
8.016,-0.14
8.018,-0.125
8.02,-0.11
8.022,-0.095
8.024,-0.08
8.026,-0.075
8.028,-0.075
8.03,-0.085
8.032,-0.1
8.034,-0.115
8.036,-0.13
8.038,-0.13
8.04,-0.13
8.042,-0.12
8.044,-0.105
8.046,-0.085
8.048,-0.075
8.05,-0.065
8.052,-0.06
8.054,-0.065
8.056,-0.07
8.058,-0.08
8.06,-0.085
8.062,-0.095
8.064,-0.095
8.066,-0.095
8.068,-0.095
8.07,-0.095
8.072,-0.095
8.074,-0.095
8.076,-0.095
8.078,-0.095
8.08,-0.095
8.082,-0.09
8.084,-0.09
8.086,-0.085
8.088,-0.085
8.09,-0.085
8.092,-0.09
8.094,-0.09
8.096,-0.09
8.098,-0.09
8.1,-0.08
8.102,-0.07
8.104,-0.055
8.106,-0.045
8.108,-0.035
8.11,-0.03
8.112,-0.035
8.114,-0.05
8.116,-0.065
8.118,-0.09
8.12,-0.11
8.122,-0.125
8.124,-0.14
8.126,-0.145
8.128,-0.14
8.13,-0.135
8.132,-0.13
8.134,-0.12
8.136,-0.115
8.138,-0.115
8.14,-0.11
8.142,-0.105
8.144,-0.1
8.146,-0.095
8.148,-0.09
8.15,-0.08
8.152,-0.075
8.154,-0.075
8.156,-0.08
8.158,-0.085
8.16,-0.1
8.162,-0.11
8.164,-0.12
8.166,-0.12
8.168,-0.115
8.17,-0.105
8.172,-0.09
8.174,-0.07
8.176,-0.055
8.178,-0.045
8.18,-0.04
8.182,-0.045
8.184,-0.06
8.186,-0.075
8.188,-0.09
8.19,-0.1
8.192,-0.11
8.194,-0.11
8.196,-0.1
8.198,-0.09
8.2,-0.07
8.202,-0.055
8.204,-0.04
8.206,-0.03
8.208,-0.02
8.21,-0.015
8.212,-0.005
8.214,0.005
8.216,0.015
8.218,0.03
8.22,0.045
8.222,0.06
8.224,0.07
8.226,0.07
8.228,0.07
8.23,0.06
8.232,0.045
8.234,0.025
8.236,0
8.238,-0.02
8.24,-0.04
8.242,-0.06
8.244,-0.075
8.246,-0.09
8.248,-0.105
8.25,-0.12
8.252,-0.13
8.254,-0.135
8.256,-0.14
8.258,-0.13
8.26,-0.12
8.262,-0.1
8.264,-0.075
8.266,-0.05
8.268,-0.025
8.27,-0.01
8.272,0
8.274,0
8.276,-0.005
8.278,-0.015
8.28,-0.03
8.282,-0.035
8.284,-0.04
8.286,-0.04
8.288,-0.035
8.29,-0.025
8.292,-0.015
8.294,-0.005
8.296,-0.005
8.298,0
8.3,-0.005
8.302,-0.01
8.304,-0.015
8.306,-0.015
8.308,-0.015
8.31,-0.01
8.312,-0.005
8.314,0.005
8.316,0.01
8.318,0.015
8.32,0.015
8.322,0.015
8.324,0.015
8.326,0.01
8.328,0.005
8.33,0.005
8.332,0
8.334,0.005
8.336,0.005
8.338,0.005
8.34,0.005
8.342,0.005
8.344,0.005
8.346,0
8.348,0
8.35,-0.005
8.352,0
8.354,0.005
8.356,0.01
8.358,0.02
8.36,0.025
8.362,0.035
8.364,0.035
8.366,0.035
8.368,0.03
8.37,0.025
8.372,0.015
8.374,0.01
8.376,0.005
8.378,0.005
8.38,0.015
8.382,0.025
8.384,0.035
8.386,0.05
8.388,0.06
8.39,0.075
8.392,0.08
8.394,0.085
8.396,0.085
8.398,0.085
8.4,0.08
8.402,0.08
8.404,0.08
8.406,0.08
8.408,0.08
8.41,0.085
8.412,0.09
8.414,0.095
8.416,0.105
8.418,0.115
8.42,0.12
8.422,0.13
8.424,0.135
8.426,0.145
8.428,0.15
8.43,0.16
8.432,0.165
8.434,0.17
8.436,0.175
8.438,0.175
8.44,0.18
8.442,0.18
8.444,0.185
8.446,0.19
8.448,0.195
8.45,0.205
8.452,0.215
8.454,0.225
8.456,0.235
8.458,0.245
8.46,0.25
8.462,0.255
8.464,0.255
8.466,0.255
8.468,0.25
8.47,0.245
8.472,0.245
8.474,0.24
8.476,0.235
8.478,0.235
8.48,0.23
8.482,0.225
8.484,0.215
8.486,0.21
8.488,0.205
8.49,0.195
8.492,0.195
8.494,0.19
8.496,0.19
8.498,0.185
8.5,0.185
8.502,0.175
8.504,0.165
8.506,0.155
8.508,0.135
8.51,0.12
8.512,0.105
8.514,0.095
8.516,0.09
8.518,0.085
8.52,0.085
8.522,0.09
8.524,0.095
8.526,0.095
8.528,0.095
8.53,0.095
8.532,0.09
8.534,0.085
8.536,0.085
8.538,0.085
8.54,0.085
8.542,0.09
8.544,0.095
8.546,0.095
8.548,0.095
8.55,0.095
8.552,0.095
8.554,0.09
8.556,0.085
8.558,0.08
8.56,0.08
8.562,0.085
8.564,0.09
8.566,0.09
8.568,0.095
8.57,0.095
8.572,0.095
8.574,0.085
8.576,0.075
8.578,0.065
8.58,0.055
8.582,0.05
8.584,0.05
8.586,0.055
8.588,0.065
8.59,0.08
8.592,0.09
8.594,0.1
8.596,0.105
8.598,0.105
8.6,0.095
8.602,0.08
8.604,0.065
8.606,0.045
8.608,0.03
8.61,0.025
8.612,0.02
8.614,0.025
8.616,0.03
8.618,0.04
8.62,0.055
8.622,0.065
8.624,0.075
8.626,0.085
8.628,0.09
8.63,0.095
8.632,0.1
8.634,0.105
8.636,0.11
8.638,0.11
8.64,0.11
8.642,0.105
8.644,0.1
8.646,0.09
8.648,0.08
8.65,0.075
8.652,0.075
8.654,0.075
8.656,0.08
8.658,0.09
8.66,0.1
8.662,0.11
8.664,0.11
8.666,0.11
8.668,0.1
8.67,0.085
8.672,0.07
8.674,0.055
8.676,0.05
8.678,0.045
8.68,0.05
8.682,0.055
8.684,0.07
8.686,0.08
8.688,0.09
8.69,0.1
8.692,0.1
8.694,0.1
8.696,0.095
8.698,0.095
8.7,0.09
8.702,0.085
8.704,0.08
8.706,0.075
8.708,0.075
8.71,0.07
8.712,0.065
8.714,0.065
8.716,0.065
8.718,0.065
8.72,0.07
8.722,0.075
8.724,0.085
8.726,0.095
8.728,0.105
8.73,0.11
8.732,0.115
8.734,0.11
8.736,0.105
8.738,0.1
8.74,0.09
8.742,0.08
8.744,0.075
8.746,0.075
8.748,0.075
8.75,0.075
8.752,0.08
8.754,0.08
8.756,0.085
8.758,0.08
8.76,0.08
8.762,0.08
8.764,0.08
8.766,0.075
8.768,0.08
8.77,0.08
8.772,0.08
8.774,0.08
8.776,0.08
8.778,0.075
8.78,0.07
8.782,0.065
8.784,0.06
8.786,0.055
8.788,0.05
8.79,0.05
8.792,0.055
8.794,0.06
8.796,0.065
8.798,0.07
8.8,0.08
8.802,0.085
8.804,0.085
8.806,0.085
8.808,0.08
8.81,0.07
8.812,0.06
8.814,0.05
8.816,0.035
8.818,0.025
8.82,0.015
8.822,0.01
8.824,0.01
8.826,0.015
8.828,0.02
8.83,0.025
8.832,0.035
8.834,0.045
8.836,0.05
8.838,0.055
8.84,0.06
8.842,0.065
8.844,0.065
8.846,0.065
8.848,0.065
8.85,0.06
8.852,0.055
8.854,0.045
8.856,0.035
8.858,0.025
8.86,0.02
8.862,0.015
8.864,0.015
8.866,0.02
8.868,0.025
8.87,0.035
8.872,0.045
8.874,0.05
8.876,0.05
8.878,0.045
8.88,0.035
8.882,0.025
8.884,0.01
8.886,0
8.888,-0.01
8.89,-0.015
8.892,-0.015
8.894,-0.01
8.896,-0.005
8.898,-0.005
8.9,0
8.902,-0.005
8.904,-0.005
8.906,-0.01
8.908,-0.015
8.91,-0.02
8.912,-0.02
8.914,-0.02
8.916,-0.02
8.918,-0.015
8.92,-0.015
8.922,-0.02
8.924,-0.02
8.926,-0.025
8.928,-0.03
8.93,-0.03
8.932,-0.03
8.934,-0.03
8.936,-0.02
8.938,-0.015
8.94,-0.005
8.942,0
8.944,0
8.946,0
8.948,-0.005
8.95,-0.015
8.952,-0.03
8.954,-0.045
8.956,-0.055
8.958,-0.065
8.96,-0.07
8.962,-0.07
8.964,-0.07
8.966,-0.065
8.968,-0.06
8.97,-0.055
8.972,-0.05
8.974,-0.05
8.976,-0.055
8.978,-0.06
8.98,-0.07
8.982,-0.075
8.984,-0.085
8.986,-0.09
8.988,-0.09
8.99,-0.09
8.992,-0.085
8.994,-0.075
8.996,-0.065
8.998,-0.055
9,-0.05
9.002,-0.045
9.004,-0.055
9.006,-0.065
9.008,-0.085
9.01,-0.105
9.012,-0.125
9.014,-0.14
9.016,-0.15
9.018,-0.15
9.02,-0.14
9.022,-0.125
9.024,-0.11
9.026,-0.09
9.028,-0.075
9.03,-0.07
9.032,-0.065
9.034,-0.07
9.036,-0.08
9.038,-0.09
9.04,-0.105
9.042,-0.11
9.044,-0.115
9.046,-0.11
9.048,-0.105
9.05,-0.095
9.052,-0.085
9.054,-0.08
9.056,-0.07
9.058,-0.07
9.06,-0.07
9.062,-0.07
9.064,-0.07
9.066,-0.075
9.068,-0.075
9.07,-0.075
9.072,-0.075
9.074,-0.075
9.076,-0.07
9.078,-0.07
9.08,-0.07
9.082,-0.075
9.084,-0.075
9.086,-0.08
9.088,-0.085
9.09,-0.09
9.092,-0.09
9.094,-0.09
9.096,-0.09
9.098,-0.09
9.1,-0.09
9.102,-0.085
9.104,-0.085
9.106,-0.085
9.108,-0.09
9.11,-0.095
9.112,-0.1
9.114,-0.11
9.116,-0.115
9.118,-0.115
9.12,-0.115
9.122,-0.11
9.124,-0.1
9.126,-0.09
9.128,-0.085
9.13,-0.075
9.132,-0.075
9.134,-0.075
9.136,-0.075
9.138,-0.08
9.14,-0.08
9.142,-0.075
9.144,-0.07
9.146,-0.055
9.148,-0.04
9.15,-0.03
9.152,-0.015
9.154,-0.015
9.156,-0.015
9.158,-0.025
9.16,-0.045
9.162,-0.06
9.164,-0.08
9.166,-0.09
9.168,-0.095
9.17,-0.095
9.172,-0.09
9.174,-0.085
9.176,-0.085
9.178,-0.085
9.18,-0.095
9.182,-0.11
9.184,-0.13
9.186,-0.15
9.188,-0.17
9.19,-0.18
9.192,-0.18
9.194,-0.17
9.196,-0.155
9.198,-0.14
9.2,-0.125
9.202,-0.115
9.204,-0.115
9.206,-0.12
9.208,-0.13
9.21,-0.145
9.212,-0.16
9.214,-0.17
9.216,-0.175
9.218,-0.17
9.22,-0.16
9.222,-0.145
9.224,-0.13
9.226,-0.115
9.228,-0.105
9.23,-0.1
9.232,-0.095
9.234,-0.1
9.236,-0.105
9.238,-0.11
9.24,-0.115
9.242,-0.12
9.244,-0.125
9.246,-0.125
9.248,-0.13
9.25,-0.13
9.252,-0.125
9.254,-0.12
9.256,-0.11
9.258,-0.1
9.26,-0.09
9.262,-0.075
9.264,-0.065
9.266,-0.055
9.268,-0.055
9.27,-0.055
9.272,-0.06
9.274,-0.07
9.276,-0.085
9.278,-0.1
9.28,-0.12
9.282,-0.145
9.284,-0.17
9.286,-0.195
9.288,-0.215
9.29,-0.23
9.292,-0.24
9.294,-0.245
9.296,-0.24
9.298,-0.225
9.3,-0.21
9.302,-0.195
9.304,-0.18
9.306,-0.175
9.308,-0.175
9.31,-0.185
9.312,-0.19
9.314,-0.2
9.316,-0.205
9.318,-0.2
9.32,-0.185
9.322,-0.165
9.324,-0.14
9.326,-0.12
9.328,-0.1
9.33,-0.09
9.332,-0.09
9.334,-0.1
9.336,-0.12
9.338,-0.145
9.34,-0.17
9.342,-0.19
9.344,-0.2
9.346,-0.205
9.348,-0.205
9.35,-0.195
9.352,-0.185
9.354,-0.175
9.356,-0.17
9.358,-0.165
9.36,-0.17
9.362,-0.175
9.364,-0.185
9.366,-0.19
9.368,-0.195
9.37,-0.195
9.372,-0.19
9.374,-0.18
9.376,-0.17
9.378,-0.165
9.38,-0.16
9.382,-0.16
9.384,-0.16
9.386,-0.17
9.388,-0.175
9.39,-0.18
9.392,-0.18
9.394,-0.18
9.396,-0.175
9.398,-0.17
9.4,-0.165
9.402,-0.16
9.404,-0.155
9.406,-0.155
9.408,-0.155
9.41,-0.155
9.412,-0.15
9.414,-0.145
9.416,-0.14
9.418,-0.125
9.42,-0.11
9.422,-0.095
9.424,-0.085
9.426,-0.08
9.428,-0.08
9.43,-0.085
9.432,-0.1
9.434,-0.115
9.436,-0.13
9.438,-0.145
9.44,-0.15
9.442,-0.15
9.444,-0.14
9.446,-0.125
9.448,-0.105
9.45,-0.085
9.452,-0.065
9.454,-0.055
9.456,-0.055
9.458,-0.06
9.46,-0.065
9.462,-0.075
9.464,-0.085
9.466,-0.09
9.468,-0.085
9.47,-0.075
9.472,-0.06
9.474,-0.04
9.476,-0.02
9.478,0
9.48,0.01
9.482,0.02
9.484,0.02
9.486,0.025
9.488,0.025
9.49,0.03
9.492,0.035
9.494,0.05
9.496,0.065
9.498,0.08
9.5,0.095
9.502,0.1
9.504,0.105
9.506,0.1
9.508,0.09
9.51,0.08
9.512,0.07
9.514,0.06
9.516,0.06
9.518,0.065
9.52,0.075
9.522,0.085
9.524,0.095
9.526,0.1
9.528,0.105
9.53,0.1
9.532,0.085
9.534,0.075
9.536,0.055
9.538,0.045
9.54,0.035
9.542,0.025
9.544,0.025
9.546,0.02
9.548,0.02
9.55,0.015
9.552,0.01
9.554,0
9.556,-0.015
9.558,-0.03
9.56,-0.04
9.562,-0.05
9.564,-0.055
9.566,-0.05
9.568,-0.045
9.57,-0.03
9.572,-0.015
9.574,0
9.576,0.01
9.578,0.015
9.58,0.015
9.582,0.01
9.584,0
9.586,-0.015
9.588,-0.025
9.59,-0.035
9.592,-0.04
9.594,-0.04
9.596,-0.04
9.598,-0.035
9.6,-0.025
9.602,-0.025
9.604,-0.02
9.606,-0.02
9.608,-0.025
9.61,-0.03
9.612,-0.04
9.614,-0.045
9.616,-0.05
9.618,-0.05
9.62,-0.055
9.622,-0.055
9.624,-0.055
9.626,-0.05
9.628,-0.045
9.63,-0.035
9.632,-0.03
9.634,-0.015
9.636,-0.005
9.638,0.005
9.64,0.01
9.642,0.015
9.644,0.015
9.646,0.005
9.648,0
9.65,-0.015
9.652,-0.02
9.654,-0.03
9.656,-0.03
9.658,-0.03
9.66,-0.025
9.662,-0.015
9.664,-0.01
9.666,-0.005
9.668,0
9.67,0
9.672,0
9.674,-0.005
9.676,-0.005
9.678,-0.005
9.68,-0.005
9.682,-0.005
9.684,0
9.686,0.005
9.688,0.01
9.69,0.01
9.692,0.01
9.694,0.01
9.696,0.005
9.698,0.005
9.7,0
9.702,0
9.704,0.005
9.706,0.01
9.708,0.015
9.71,0.02
9.712,0.025
9.714,0.025
9.716,0.025
9.718,0.025
9.72,0.02
9.722,0.015
9.724,0.015
9.726,0.015
9.728,0.015
9.73,0.025
9.732,0.035
9.734,0.05
9.736,0.065
9.738,0.075
9.74,0.085
9.742,0.085
9.744,0.085
9.746,0.08
9.748,0.065
9.75,0.055
9.752,0.04
9.754,0.025
9.756,0.015
9.758,0.005
9.76,0
9.762,0
9.764,0
9.766,0.005
9.768,0.01
9.77,0.015
9.772,0.02
9.774,0.02
9.776,0.025
9.778,0.025
9.78,0.025
9.782,0.025
9.784,0.025
9.786,0.02
9.788,0.02
9.79,0.02
9.792,0.02
9.794,0.02
9.796,0.015
9.798,0.015
9.8,0.015
9.802,0.01
9.804,0.015
9.806,0.015
9.808,0.02
9.81,0.03
9.812,0.035
9.814,0.045
9.816,0.05
9.818,0.055
9.82,0.05
9.822,0.04
9.824,0.03
9.826,0.015
9.828,0.005
9.83,-0.005
9.832,-0.005
9.834,0
9.836,0.01
9.838,0.03
9.84,0.05
9.842,0.07
9.844,0.085
9.846,0.09
9.848,0.09
9.85,0.085
9.852,0.075
9.854,0.065
9.856,0.065
9.858,0.065
9.86,0.075
9.862,0.095
9.864,0.115
9.866,0.14
9.868,0.16
9.87,0.18
9.872,0.19
9.874,0.195
9.876,0.195
9.878,0.19
9.88,0.19
9.882,0.185
9.884,0.185
9.886,0.185
9.888,0.19
9.89,0.19
9.892,0.195
9.894,0.195
9.896,0.19
9.898,0.185
9.9,0.18
9.902,0.17
9.904,0.17
9.906,0.17
9.908,0.175
9.91,0.18
9.912,0.19
9.914,0.2
9.916,0.205
9.918,0.205
9.92,0.2
9.922,0.19
9.924,0.18
9.926,0.165
9.928,0.155
9.93,0.145
9.932,0.14
9.934,0.145
9.936,0.15
9.938,0.16
9.94,0.17
9.942,0.18
9.944,0.185
9.946,0.19
9.948,0.19
9.95,0.19
9.952,0.19
9.954,0.185
9.956,0.185
9.958,0.185
9.96,0.18
9.962,0.18
9.964,0.18
9.966,0.18
9.968,0.175
9.97,0.175
9.972,0.175
9.974,0.175
9.976,0.175
9.978,0.18
9.98,0.185
9.982,0.19
9.984,0.195
9.986,0.2
9.988,0.2
9.99,0.195
9.992,0.19
9.994,0.185
9.996,0.175
9.998,0.165
