0,0.09
0.002,0.025
0.004,-0.01
0.006,-0.04
0.008,-0.045
0.01,-0.025
0.012,0.005
0.014,0.04
0.016,0.075
0.018,0.09
0.02,0.095
0.022,0.08
0.024,0.055
0.026,0.025
0.028,0
0.03,-0.015
0.032,-0.015
0.034,-0.005
0.036,0.015
0.038,0.035
0.04,0.05
0.042,0.06
0.044,0.06
0.046,0.055
0.048,0.04
0.05,0.025
0.052,0.01
0.054,0.005
0.056,0.005
0.058,0.015
0.06,0.025
0.062,0.04
0.064,0.05
0.066,0.055
0.068,0.06
0.07,0.055
0.072,0.05
0.074,0.045
0.076,0.04
0.078,0.035
0.08,0.03
0.082,0.025
0.084,0.02
0.086,0.015
0.088,0.015
0.09,0.01
0.092,0.005
0.094,0.005
0.096,0.005
0.098,0.005
0.1,0.005
0.102,0.01
0.104,0.02
0.106,0.025
0.108,0.035
0.11,0.04
0.112,0.045
0.114,0.045
0.116,0.045
0.118,0.035
0.12,0.025
0.122,0.015
0.124,0.005
0.126,0
0.128,0
0.13,0.005
0.132,0.015
0.134,0.025
0.136,0.04
0.138,0.04
0.14,0.04
0.142,0.025
0.144,0.01
0.146,-0.015
0.148,-0.04
0.15,-0.06
0.152,-0.07
0.154,-0.075
0.156,-0.07
0.158,-0.06
0.16,-0.05
0.162,-0.035
0.164,-0.03
0.166,-0.03
0.168,-0.035
0.17,-0.045
0.172,-0.055
0.174,-0.065
0.176,-0.07
0.178,-0.075
0.18,-0.07
0.182,-0.065
0.184,-0.06
0.186,-0.055
0.188,-0.055
0.19,-0.06
0.192,-0.07
0.194,-0.085
0.196,-0.095
0.198,-0.1
0.2,-0.1
0.202,-0.095
0.204,-0.075
0.206,-0.05
0.208,-0.02
0.21,0.015
0.212,0.045
0.214,0.065
0.216,0.08
0.218,0.085
0.22,0.08
0.222,0.065
0.224,0.045
0.226,0.025
0.228,0.005
0.23,-0.015
0.232,-0.035
0.234,-0.05
0.236,-0.06
0.238,-0.075
0.24,-0.08
0.242,-0.09
0.244,-0.095
0.246,-0.1
0.248,-0.1
0.25,-0.1
0.252,-0.1
0.254,-0.1
0.256,-0.1
0.258,-0.105
0.26,-0.105
0.262,-0.11
0.264,-0.11
0.266,-0.11
0.268,-0.105
0.27,-0.1
0.272,-0.095
0.274,-0.09
0.276,-0.09
0.278,-0.095
0.28,-0.1
0.282,-0.115
0.284,-0.13
0.286,-0.155
0.288,-0.175
0.29,-0.2
0.292,-0.225
0.294,-0.24
0.296,-0.255
0.298,-0.26
0.3,-0.26
0.302,-0.25
0.304,-0.23
0.306,-0.2
0.308,-0.155
0.31,-0.095
0.312,-0.02
0.314,0.07
0.316,0.175
0.318,0.285
0.32,0.405
0.322,0.52
0.324,0.625
0.326,0.715
0.328,0.78
0.33,0.815
0.332,0.815
0.334,0.775
0.336,0.71
0.338,0.615
0.34,0.505
0.342,0.395
0.344,0.285
0.346,0.19
0.348,0.11
0.35,0.05
0.352,0.01
0.354,-0.02
0.356,-0.04
0.358,-0.06
0.36,-0.075
0.362,-0.09
0.364,-0.11
0.366,-0.125
0.368,-0.135
0.37,-0.145
0.372,-0.155
0.374,-0.155
0.376,-0.16
0.378,-0.165
0.38,-0.17
0.382,-0.175
0.384,-0.185
0.386,-0.195
0.388,-0.205
0.39,-0.21
0.392,-0.215
0.394,-0.21
0.396,-0.205
0.398,-0.2
0.4,-0.195
0.402,-0.185
0.404,-0.18
0.406,-0.175
0.408,-0.175
0.41,-0.18
0.412,-0.18
0.414,-0.185
0.416,-0.19
0.418,-0.195
0.42,-0.195
0.422,-0.195
0.424,-0.19
0.426,-0.185
0.428,-0.18
0.43,-0.175
0.432,-0.175
0.434,-0.175
0.436,-0.18
0.438,-0.185
0.44,-0.19
0.442,-0.195
0.444,-0.195
0.446,-0.195
0.448,-0.19
0.45,-0.19
0.452,-0.185
0.454,-0.185
0.456,-0.19
0.458,-0.2
0.46,-0.21
0.462,-0.225
0.464,-0.24
0.466,-0.25
0.468,-0.255
0.47,-0.255
0.472,-0.255
0.474,-0.245
0.476,-0.235
0.478,-0.225
0.48,-0.215
0.482,-0.205
0.484,-0.19
0.486,-0.17
0.488,-0.15
0.49,-0.125
0.492,-0.1
0.494,-0.08
0.496,-0.06
0.498,-0.045
0.5,-0.035
0.502,-0.035
0.504,-0.04
0.506,-0.045
0.508,-0.05
0.51,-0.055
0.512,-0.05
0.514,-0.04
0.516,-0.025
0.518,-0.005
0.52,0.02
0.522,0.04
0.524,0.06
0.526,0.075
0.528,0.085
0.53,0.09
0.532,0.095
0.534,0.105
0.536,0.11
0.538,0.12
0.54,0.13
0.542,0.14
0.544,0.15
0.546,0.155
0.548,0.155
0.55,0.15
0.552,0.145
0.554,0.135
0.556,0.125
0.558,0.12
0.56,0.12
0.562,0.125
0.564,0.14
0.566,0.155
0.568,0.175
0.57,0.19
0.572,0.205
0.574,0.21
0.576,0.21
0.578,0.205
0.58,0.19
0.582,0.17
0.584,0.15
0.586,0.13
0.588,0.11
0.59,0.095
0.592,0.08
0.594,0.07
0.596,0.06
0.598,0.055
0.6,0.045
0.602,0.04
0.604,0.035
0.606,0.03
0.608,0.025
0.61,0.02
0.612,0.015
0.614,0.01
0.616,0
0.618,-0.005
0.62,-0.015
0.622,-0.025
0.624,-0.035
0.626,-0.04
0.628,-0.045
0.63,-0.045
0.632,-0.04
0.634,-0.035
0.636,-0.03
0.638,-0.025
0.64,-0.025
0.642,-0.025
0.644,-0.03
0.646,-0.035
0.648,-0.04
0.65,-0.045
0.652,-0.05
0.654,-0.05
0.656,-0.05
0.658,-0.045
0.66,-0.04
0.662,-0.03
0.664,-0.025
0.666,-0.02
0.668,-0.02
0.67,-0.025
0.672,-0.03
0.674,-0.035
0.676,-0.045
0.678,-0.05
0.68,-0.05
0.682,-0.05
0.684,-0.04
0.686,-0.03
0.688,-0.02
0.69,-0.005
0.692,0
0.694,0.005
0.696,0.005
0.698,0
0.7,-0.01
0.702,-0.02
0.704,-0.03
0.706,-0.03
0.708,-0.03
0.71,-0.025
0.712,-0.015
0.714,-0.005
0.716,0
0.718,0
0.72,-0.005
0.722,-0.015
0.724,-0.025
0.726,-0.04
0.728,-0.045
0.73,-0.05
0.732,-0.055
0.734,-0.05
0.736,-0.045
0.738,-0.04
0.74,-0.035
0.742,-0.03
0.744,-0.03
0.746,-0.025
0.748,-0.025
0.75,-0.02
0.752,-0.015
0.754,-0.01
0.756,-0.005
0.758,-0.005
0.76,0
0.762,0
0.764,0
0.766,0
0.768,0
0.77,0
0.772,0
0.774,0
0.776,-0.005
0.778,-0.01
0.78,-0.02
0.782,-0.035
0.784,-0.045
0.786,-0.05
0.788,-0.055
0.79,-0.055
0.792,-0.05
0.794,-0.04
0.796,-0.035
0.798,-0.03
0.8,-0.025
0.802,-0.03
0.804,-0.04
0.806,-0.045
0.808,-0.055
0.81,-0.06
0.812,-0.055
0.814,-0.05
0.816,-0.035
0.818,-0.025
0.82,-0.015
0.822,-0.01
0.824,-0.015
0.826,-0.025
0.828,-0.04
0.83,-0.055
0.832,-0.065
0.834,-0.07
0.836,-0.065
0.838,-0.05
0.84,-0.03
0.842,-0.005
0.844,0.01
0.846,0.025
0.848,0.025
0.85,0.02
0.852,0.005
0.854,-0.01
0.856,-0.03
0.858,-0.04
0.86,-0.045
0.862,-0.045
0.864,-0.045
0.866,-0.04
0.868,-0.04
0.87,-0.04
0.872,-0.045
0.874,-0.055
0.876,-0.06
0.878,-0.065
0.88,-0.065
0.882,-0.055
0.884,-0.04
0.886,-0.025
0.888,-0.015
0.89,-0.01
0.892,-0.015
0.894,-0.03
0.896,-0.045
0.898,-0.065
0.9,-0.08
0.902,-0.085
0.904,-0.075
0.906,-0.055
0.908,-0.025
0.91,0.015
0.912,0.05
0.914,0.08
0.916,0.1
0.918,0.105
0.92,0.105
0.922,0.1
0.924,0.09
0.926,0.085
0.928,0.075
0.93,0.07
0.932,0.07
0.934,0.065
0.936,0.055
0.938,0.04
0.94,0.02
0.942,0
0.944,-0.02
0.946,-0.03
0.948,-0.04
0.95,-0.04
0.952,-0.035
0.954,-0.025
0.956,-0.02
0.958,-0.015
0.96,-0.02
0.962,-0.025
0.964,-0.04
0.966,-0.055
0.968,-0.065
0.97,-0.07
0.972,-0.07
0.974,-0.06
0.976,-0.05
0.978,-0.04
0.98,-0.03
0.982,-0.025
0.984,-0.03
0.986,-0.04
0.988,-0.055
0.99,-0.07
0.992,-0.09
0.994,-0.105
0.996,-0.12
0.998,-0.13
1,-0.14
1.002,-0.145
1.004,-0.15
1.006,-0.15
1.008,-0.14
1.01,-0.125
1.012,-0.1
1.014,-0.06
1.016,-0.01
1.018,0.055
1.02,0.135
1.022,0.225
1.024,0.32
1.026,0.42
1.028,0.52
1.03,0.615
1.032,0.705
1.034,0.785
1.036,0.845
1.038,0.88
1.04,0.885
1.042,0.855
1.044,0.795
1.046,0.705
1.048,0.595
1.05,0.475
1.052,0.36
1.054,0.25
1.056,0.16
1.058,0.095
1.06,0.055
1.062,0.03
1.064,0.015
1.066,0.01
1.068,0
1.07,-0.015
1.072,-0.035
1.074,-0.06
1.076,-0.08
1.078,-0.09
1.08,-0.095
1.082,-0.09
1.084,-0.08
1.086,-0.06
1.088,-0.05
1.09,-0.04
1.092,-0.04
1.094,-0.055
1.096,-0.075
1.098,-0.1
1.1,-0.125
1.102,-0.145
1.104,-0.155
1.106,-0.155
1.108,-0.15
1.11,-0.14
1.112,-0.125
1.114,-0.11
1.116,-0.095
1.118,-0.085
1.12,-0.08
1.122,-0.08
1.124,-0.08
1.126,-0.085
1.128,-0.085
1.13,-0.085
1.132,-0.085
1.134,-0.085
1.136,-0.08
1.138,-0.075
1.14,-0.075
1.142,-0.07
1.144,-0.07
1.146,-0.07
1.148,-0.07
1.15,-0.075
1.152,-0.08
1.154,-0.085
1.156,-0.085
1.158,-0.085
1.16,-0.085
1.162,-0.08
1.164,-0.07
1.166,-0.065
1.168,-0.06
1.17,-0.055
1.172,-0.055
1.174,-0.055
1.176,-0.055
1.178,-0.06
1.18,-0.06
1.182,-0.06
1.184,-0.055
1.186,-0.045
1.188,-0.035
1.19,-0.03
1.192,-0.02
1.194,-0.015
1.196,-0.01
1.198,-0.01
1.2,-0.01
1.202,-0.01
1.204,-0.01
1.206,-0.01
1.208,-0.005
1.21,0.005
1.212,0.015
1.214,0.03
1.216,0.04
1.218,0.055
1.22,0.07
1.222,0.08
1.224,0.085
1.226,0.09
1.228,0.09
1.23,0.09
1.232,0.09
1.234,0.09
1.236,0.095
1.238,0.105
1.24,0.115
1.242,0.13
1.244,0.145
1.246,0.16
1.248,0.165
1.25,0.17
1.252,0.17
1.254,0.165
1.256,0.165
1.258,0.16
1.26,0.16
1.262,0.165
1.264,0.17
1.266,0.18
1.268,0.19
1.27,0.2
1.272,0.2
1.274,0.2
1.276,0.195
1.278,0.19
1.28,0.185
1.282,0.18
1.284,0.18
1.286,0.18
1.288,0.18
1.29,0.175
1.292,0.165
1.294,0.15
1.296,0.135
1.298,0.115
1.3,0.095
1.302,0.08
1.304,0.07
1.306,0.07
1.308,0.075
1.31,0.085
1.312,0.09
1.314,0.09
1.316,0.08
1.318,0.06
1.32,0.035
1.322,0.005
1.324,-0.025
1.326,-0.05
1.328,-0.07
1.33,-0.08
1.332,-0.075
1.334,-0.065
1.336,-0.055
1.338,-0.04
1.34,-0.025
1.342,-0.02
1.344,-0.02
1.346,-0.025
1.348,-0.03
1.35,-0.04
1.352,-0.05
1.354,-0.06
1.356,-0.065
1.358,-0.075
1.36,-0.08
1.362,-0.085
1.364,-0.085
1.366,-0.09
1.368,-0.085
1.37,-0.08
1.372,-0.075
1.374,-0.07
1.376,-0.065
1.378,-0.065
1.38,-0.065
1.382,-0.07
1.384,-0.075
1.386,-0.08
1.388,-0.08
1.39,-0.075
1.392,-0.07
1.394,-0.06
1.396,-0.055
1.398,-0.05
1.4,-0.05
1.402,-0.055
1.404,-0.065
1.406,-0.08
1.408,-0.09
1.41,-0.1
1.412,-0.1
1.414,-0.095
1.416,-0.085
1.418,-0.07
1.42,-0.06
1.422,-0.05
1.424,-0.045
1.426,-0.05
1.428,-0.06
1.43,-0.07
1.432,-0.08
1.434,-0.09
1.436,-0.095
1.438,-0.1
1.44,-0.1
1.442,-0.1
1.444,-0.1
1.446,-0.1
1.448,-0.095
1.45,-0.095
1.452,-0.09
1.454,-0.08
1.456,-0.07
1.458,-0.06
1.46,-0.05
1.462,-0.045
1.464,-0.05
1.466,-0.06
1.468,-0.075
1.47,-0.095
1.472,-0.11
1.474,-0.125
1.476,-0.13
1.478,-0.125
1.48,-0.11
1.482,-0.09
1.484,-0.065
1.486,-0.04
1.488,-0.025
1.49,-0.015
1.492,-0.02
1.494,-0.035
1.496,-0.055
1.498,-0.08
1.5,-0.105
1.502,-0.125
1.504,-0.14
1.506,-0.14
1.508,-0.135
1.51,-0.12
1.512,-0.1
1.514,-0.08
1.516,-0.06
1.518,-0.05
1.52,-0.05
1.522,-0.06
1.524,-0.075
1.526,-0.1
1.528,-0.12
1.53,-0.135
1.532,-0.145
1.534,-0.145
1.536,-0.135
1.538,-0.12
1.54,-0.095
1.542,-0.075
1.544,-0.06
1.546,-0.045
1.548,-0.045
1.55,-0.045
1.552,-0.05
1.554,-0.06
1.556,-0.07
1.558,-0.075
1.56,-0.08
1.562,-0.085
1.564,-0.085
1.566,-0.085
1.568,-0.085
1.57,-0.08
1.572,-0.08
1.574,-0.075
1.576,-0.07
1.578,-0.065
1.58,-0.06
1.582,-0.055
1.584,-0.055
1.586,-0.06
1.588,-0.06
1.59,-0.065
1.592,-0.065
1.594,-0.065
1.596,-0.06
1.598,-0.055
1.6,-0.045
1.602,-0.03
1.604,-0.015
1.606,0
1.608,0.01
1.61,0.02
1.612,0.025
1.614,0.03
1.616,0.03
1.618,0.03
1.62,0.025
1.622,0.02
1.624,0.015
1.626,0.01
1.628,0
1.63,-0.01
1.632,-0.02
1.634,-0.03
1.636,-0.045
1.638,-0.055
1.64,-0.065
1.642,-0.075
1.644,-0.075
1.646,-0.075
1.648,-0.075
1.65,-0.07
1.652,-0.07
1.654,-0.065
1.656,-0.065
1.658,-0.07
1.66,-0.08
1.662,-0.09
1.664,-0.1
1.666,-0.11
1.668,-0.115
1.67,-0.11
1.672,-0.105
1.674,-0.09
1.676,-0.075
1.678,-0.06
1.68,-0.055
1.682,-0.055
1.684,-0.065
1.686,-0.085
1.688,-0.115
1.69,-0.15
1.692,-0.18
1.694,-0.205
1.696,-0.22
1.698,-0.215
1.7,-0.195
1.702,-0.155
1.704,-0.1
1.706,-0.03
1.708,0.05
1.71,0.14
1.712,0.235
1.714,0.34
1.716,0.44
1.718,0.54
1.72,0.63
1.722,0.705
1.724,0.76
1.726,0.785
1.728,0.78
1.73,0.74
1.732,0.67
1.734,0.575
1.736,0.465
1.738,0.35
1.74,0.24
1.742,0.145
1.744,0.07
1.746,0.02
1.748,-0.01
1.75,-0.02
1.752,-0.02
1.754,-0.015
1.756,-0.01
1.758,-0.01
1.76,-0.015
1.762,-0.03
1.764,-0.045
1.766,-0.065
1.768,-0.08
1.77,-0.09
1.772,-0.095
1.774,-0.1
1.776,-0.1
1.778,-0.095
1.78,-0.1
1.782,-0.105
1.784,-0.115
1.786,-0.13
1.788,-0.145
1.79,-0.15
1.792,-0.155
1.794,-0.155
1.796,-0.145
1.798,-0.13
1.8,-0.11
1.802,-0.09
1.804,-0.075
1.806,-0.065
1.808,-0.06
1.81,-0.055
1.812,-0.05
1.814,-0.05
1.816,-0.05
1.818,-0.05
1.82,-0.05
1.822,-0.055
1.824,-0.06
1.826,-0.07
1.828,-0.085
1.83,-0.095
1.832,-0.105
1.834,-0.105
1.836,-0.105
1.838,-0.095
1.84,-0.085
1.842,-0.07
1.844,-0.055
1.846,-0.045
1.848,-0.04
1.85,-0.04
1.852,-0.045
1.854,-0.05
1.856,-0.055
1.858,-0.055
1.86,-0.05
1.862,-0.04
1.864,-0.035
1.866,-0.025
1.868,-0.02
1.87,-0.025
1.872,-0.03
1.874,-0.04
1.876,-0.05
1.878,-0.055
1.88,-0.055
1.882,-0.05
1.884,-0.035
1.886,-0.02
1.888,0
1.89,0.02
1.892,0.03
1.894,0.035
1.896,0.035
1.898,0.035
1.9,0.03
1.902,0.03
1.904,0.04
1.906,0.055
1.908,0.075
1.91,0.1
1.912,0.125
1.914,0.145
1.916,0.16
1.918,0.165
1.92,0.16
1.922,0.145
1.924,0.125
1.926,0.11
1.928,0.095
1.93,0.09
1.932,0.09
1.934,0.105
1.936,0.12
1.938,0.14
1.94,0.16
1.942,0.18
1.944,0.19
1.946,0.195
1.948,0.2
1.95,0.2
1.952,0.2
1.954,0.2
1.956,0.2
1.958,0.205
1.96,0.21
1.962,0.215
1.964,0.215
1.966,0.21
1.968,0.2
1.97,0.19
1.972,0.18
1.974,0.17
1.976,0.16
1.978,0.155
1.98,0.155
1.982,0.155
1.984,0.155
1.986,0.16
1.988,0.16
1.99,0.155
1.992,0.15
1.994,0.135
1.996,0.12
1.998,0.1
2,0.075
2.002,0.05
2.004,0.025
2.006,0
2.008,-0.025
2.01,-0.04
2.012,-0.05
2.014,-0.055
2.016,-0.055
2.018,-0.045
2.02,-0.04
2.022,-0.035
2.024,-0.035
2.026,-0.035
2.028,-0.045
2.03,-0.055
2.032,-0.07
2.034,-0.08
2.036,-0.09
2.038,-0.095
2.04,-0.095
2.042,-0.095
2.044,-0.085
2.046,-0.08
2.048,-0.07
2.05,-0.065
2.052,-0.055
2.054,-0.055
2.056,-0.055
2.058,-0.055
2.06,-0.06
2.062,-0.07
2.064,-0.08
2.066,-0.09
2.068,-0.1
2.07,-0.105
2.072,-0.11
2.074,-0.11
2.076,-0.105
2.078,-0.1
2.08,-0.085
2.082,-0.07
2.084,-0.055
2.086,-0.04
2.088,-0.035
2.09,-0.03
2.092,-0.03
2.094,-0.035
2.096,-0.045
2.098,-0.06
2.1,-0.07
2.102,-0.08
2.104,-0.09
2.106,-0.095
2.108,-0.095
2.11,-0.095
2.112,-0.095
2.114,-0.095
2.116,-0.095
2.118,-0.095
2.12,-0.09
2.122,-0.085
2.124,-0.08
2.126,-0.065
2.128,-0.05
2.13,-0.03
2.132,-0.01
2.134,0
2.136,0.01
2.138,0.005
2.14,-0.01
2.142,-0.03
2.144,-0.055
2.146,-0.08
2.148,-0.1
2.15,-0.115
2.152,-0.12
2.154,-0.115
2.156,-0.1
2.158,-0.08
2.16,-0.055
2.162,-0.035
2.164,-0.02
2.166,-0.01
2.168,-0.01
2.17,-0.015
2.172,-0.025
2.174,-0.04
2.176,-0.06
2.178,-0.075
2.18,-0.085
2.182,-0.09
2.184,-0.095
2.186,-0.09
2.188,-0.085
2.19,-0.08
2.192,-0.07
2.194,-0.06
2.196,-0.055
2.198,-0.045
2.2,-0.04
2.202,-0.035
2.204,-0.035
2.206,-0.04
2.208,-0.045
2.21,-0.055
2.212,-0.07
2.214,-0.085
2.216,-0.095
2.218,-0.105
2.22,-0.11
2.222,-0.11
2.224,-0.1
2.226,-0.085
2.228,-0.06
2.23,-0.04
2.232,-0.015
2.234,0
2.236,0.01
2.238,0.015
2.24,0.005
2.242,-0.01
2.244,-0.035
2.246,-0.06
2.248,-0.08
2.25,-0.1
2.252,-0.11
2.254,-0.115
2.256,-0.115
2.258,-0.11
2.26,-0.1
2.262,-0.085
2.264,-0.075
2.266,-0.06
2.268,-0.055
2.27,-0.045
2.272,-0.04
2.274,-0.035
2.276,-0.03
2.278,-0.03
2.28,-0.025
2.282,-0.015
2.284,-0.005
2.286,0.005
2.288,0.02
2.29,0.03
2.292,0.045
2.294,0.05
2.296,0.055
2.298,0.055
2.3,0.05
2.302,0.04
2.304,0.025
2.306,0.015
2.308,0.005
2.31,-0.005
2.312,-0.005
2.314,-0.005
2.316,-0.005
2.318,0
2.32,0
2.322,-0.005
2.324,-0.01
2.326,-0.02
2.328,-0.035
2.33,-0.05
2.332,-0.06
2.334,-0.07
2.336,-0.08
2.338,-0.08
2.34,-0.08
2.342,-0.075
2.344,-0.07
2.346,-0.07
2.348,-0.065
2.35,-0.065
2.352,-0.065
2.354,-0.07
2.356,-0.075
2.358,-0.08
2.36,-0.085
2.362,-0.09
2.364,-0.095
2.366,-0.1
2.368,-0.105
2.37,-0.115
2.372,-0.13
2.374,-0.14
2.376,-0.155
2.378,-0.165
2.38,-0.17
2.382,-0.16
2.384,-0.14
2.386,-0.1
2.388,-0.045
2.39,0.025
2.392,0.11
2.394,0.2
2.396,0.305
2.398,0.41
2.4,0.515
2.402,0.615
2.404,0.705
2.406,0.785
2.408,0.84
2.41,0.875
2.412,0.875
2.414,0.845
2.416,0.775
2.418,0.68
2.42,0.565
2.422,0.44
2.424,0.315
2.426,0.205
2.428,0.12
2.43,0.055
2.432,0.02
2.434,0.005
2.436,0.005
2.438,0.005
2.44,0.005
2.442,0
2.444,-0.02
2.446,-0.04
2.448,-0.065
2.45,-0.085
2.452,-0.095
2.454,-0.1
2.456,-0.1
2.458,-0.095
2.46,-0.09
2.462,-0.09
2.464,-0.095
2.466,-0.105
2.468,-0.12
2.47,-0.135
2.472,-0.14
2.474,-0.145
2.476,-0.14
2.478,-0.13
2.48,-0.115
2.482,-0.1
2.484,-0.09
2.486,-0.085
2.488,-0.085
2.49,-0.09
2.492,-0.095
2.494,-0.095
2.496,-0.09
2.498,-0.085
2.5,-0.08
2.502,-0.07
2.504,-0.065
2.506,-0.065
2.508,-0.07
2.51,-0.08
2.512,-0.09
2.514,-0.105
2.516,-0.11
2.518,-0.115
2.52,-0.105
2.522,-0.095
2.524,-0.075
2.526,-0.06
2.528,-0.045
2.53,-0.03
2.532,-0.025
2.534,-0.03
2.536,-0.035
2.538,-0.045
2.54,-0.055
2.542,-0.06
2.544,-0.07
2.546,-0.07
2.548,-0.075
2.55,-0.07
2.552,-0.07
2.554,-0.065
2.556,-0.06
2.558,-0.05
2.56,-0.045
2.562,-0.04
2.564,-0.03
2.566,-0.025
2.568,-0.015
2.57,-0.01
2.572,-0.005
2.574,0.005
2.576,0.01
2.578,0.015
2.58,0.02
2.582,0.02
2.584,0.025
2.586,0.025
2.588,0.025
2.59,0.025
2.592,0.02
2.594,0.02
2.596,0.02
2.598,0.025
2.6,0.04
2.602,0.055
2.604,0.08
2.606,0.105
2.608,0.13
2.61,0.155
2.612,0.175
2.614,0.185
2.616,0.185
2.618,0.185
2.62,0.175
2.622,0.165
2.624,0.155
2.626,0.145
2.628,0.145
2.63,0.145
2.632,0.155
2.634,0.165
2.636,0.18
2.638,0.195
2.64,0.205
2.642,0.21
2.644,0.21
2.646,0.205
2.648,0.195
2.65,0.18
2.652,0.17
2.654,0.16
2.656,0.15
2.658,0.145
2.66,0.145
2.662,0.145
2.664,0.15
2.666,0.15
2.668,0.14
2.67,0.13
2.672,0.11
2.674,0.09
2.676,0.065
2.678,0.04
2.68,0.02
2.682,0.005
2.684,0
2.686,0.005
2.688,0.01
2.69,0.015
2.692,0.02
2.694,0.015
2.696,0.01
2.698,-0.005
2.7,-0.02
2.702,-0.035
2.704,-0.045
2.706,-0.05
2.708,-0.05
2.71,-0.04
2.712,-0.03
2.714,-0.025
2.716,-0.02
2.718,-0.025
2.72,-0.035
2.722,-0.05
2.724,-0.065
2.726,-0.075
2.728,-0.085
2.73,-0.085
2.732,-0.085
2.734,-0.075
2.736,-0.065
2.738,-0.055
2.74,-0.045
2.742,-0.04
2.744,-0.04
2.746,-0.04
2.748,-0.045
2.75,-0.05
2.752,-0.055
2.754,-0.06
2.756,-0.07
2.758,-0.075
2.76,-0.08
2.762,-0.085
2.764,-0.09
2.766,-0.09
2.768,-0.09
2.77,-0.09
2.772,-0.085
2.774,-0.08
2.776,-0.075
2.778,-0.07
2.78,-0.065
2.782,-0.06
2.784,-0.055
2.786,-0.045
2.788,-0.04
2.79,-0.04
2.792,-0.035
2.794,-0.035
2.796,-0.04
2.798,-0.05
2.8,-0.06
2.802,-0.07
2.804,-0.075
2.806,-0.085
2.808,-0.085
2.81,-0.08
2.812,-0.075
2.814,-0.07
2.816,-0.06
2.818,-0.06
2.82,-0.06
2.822,-0.06
2.824,-0.07
2.826,-0.075
2.828,-0.08
2.83,-0.08
2.832,-0.08
2.834,-0.08
2.836,-0.085
2.838,-0.085
2.84,-0.09
2.842,-0.095
2.844,-0.1
2.846,-0.105
2.848,-0.105
2.85,-0.105
2.852,-0.1
2.854,-0.09
2.856,-0.08
2.858,-0.07
2.86,-0.06
2.862,-0.055
2.864,-0.05
2.866,-0.055
2.868,-0.055
2.87,-0.06
2.872,-0.07
2.874,-0.075
2.876,-0.08
2.878,-0.085
2.88,-0.085
2.882,-0.09
2.884,-0.085
2.886,-0.085
2.888,-0.08
2.89,-0.075
2.892,-0.075
2.894,-0.075
2.896,-0.075
2.898,-0.075
2.9,-0.08
2.902,-0.085
2.904,-0.09
2.906,-0.095
2.908,-0.09
2.91,-0.09
2.912,-0.085
2.914,-0.08
2.916,-0.075
2.918,-0.08
2.92,-0.085
2.922,-0.09
2.924,-0.1
2.926,-0.11
2.928,-0.115
2.93,-0.12
2.932,-0.115
2.934,-0.11
2.936,-0.1
2.938,-0.09
2.94,-0.08
2.942,-0.07
2.944,-0.065
2.946,-0.065
2.948,-0.06
2.95,-0.06
2.952,-0.055
2.954,-0.05
2.956,-0.05
2.958,-0.05
2.96,-0.05
2.962,-0.055
2.964,-0.06
2.966,-0.07
2.968,-0.07
2.97,-0.07
2.972,-0.065
2.974,-0.05
2.976,-0.03
2.978,-0.005
2.98,0.02
2.982,0.04
2.984,0.055
2.986,0.065
2.988,0.065
2.99,0.055
2.992,0.045
2.994,0.03
2.996,0.015
2.998,0
3,-0.005
3.002,-0.01
3.004,-0.015
3.006,-0.015
3.008,-0.02
3.01,-0.025
3.012,-0.035
3.014,-0.045
3.016,-0.055
3.018,-0.065
3.02,-0.075
3.022,-0.085
3.024,-0.085
3.026,-0.09
3.028,-0.09
3.03,-0.085
3.032,-0.085
3.034,-0.085
3.036,-0.085
3.038,-0.09
3.04,-0.09
3.042,-0.09
3.044,-0.095
3.046,-0.09
3.048,-0.09
3.05,-0.09
3.052,-0.085
3.054,-0.09
3.056,-0.095
3.058,-0.105
3.06,-0.12
3.062,-0.14
3.064,-0.155
3.066,-0.175
3.068,-0.185
3.07,-0.185
3.072,-0.175
3.074,-0.15
3.076,-0.115
3.078,-0.065
3.08,-0.005
3.082,0.07
3.084,0.155
3.086,0.25
3.088,0.35
3.09,0.455
3.092,0.56
3.094,0.665
3.096,0.765
3.098,0.84
3.1,0.895
3.102,0.915
3.104,0.895
3.106,0.84
3.108,0.75
3.11,0.635
3.112,0.5
3.114,0.37
3.116,0.245
3.118,0.14
3.12,0.06
3.122,0.01
3.124,-0.02
3.126,-0.025
3.128,-0.025
3.13,-0.02
3.132,-0.02
3.134,-0.025
3.136,-0.04
3.138,-0.06
3.14,-0.085
3.142,-0.105
3.144,-0.12
3.146,-0.125
3.148,-0.12
3.15,-0.115
3.152,-0.1
3.154,-0.085
3.156,-0.075
3.158,-0.065
3.16,-0.065
3.162,-0.065
3.164,-0.07
3.166,-0.075
3.168,-0.08
3.17,-0.085
3.172,-0.09
3.174,-0.095
3.176,-0.1
3.178,-0.1
3.18,-0.1
3.182,-0.1
3.184,-0.105
3.186,-0.105
3.188,-0.105
3.19,-0.105
3.192,-0.105
3.194,-0.105
3.196,-0.105
3.198,-0.1
3.2,-0.095
3.202,-0.09
3.204,-0.08
3.206,-0.07
3.208,-0.065
3.21,-0.055
3.212,-0.055
3.214,-0.055
3.216,-0.06
3.218,-0.07
3.22,-0.08
3.222,-0.09
3.224,-0.1
3.226,-0.105
3.228,-0.105
3.23,-0.095
3.232,-0.085
3.234,-0.075
3.236,-0.06
3.238,-0.045
3.24,-0.035
3.242,-0.03
3.244,-0.03
3.246,-0.03
3.248,-0.035
3.25,-0.04
3.252,-0.045
3.254,-0.05
3.256,-0.055
3.258,-0.05
3.26,-0.045
3.262,-0.04
3.264,-0.025
3.266,-0.01
3.268,0.01
3.27,0.025
3.272,0.035
3.274,0.045
3.276,0.045
3.278,0.045
3.28,0.04
3.282,0.035
3.284,0.03
3.286,0.035
3.288,0.035
3.29,0.045
3.292,0.055
3.294,0.065
3.296,0.075
3.298,0.085
3.3,0.09
3.302,0.09
3.304,0.095
3.306,0.1
3.308,0.11
3.31,0.12
3.312,0.135
3.314,0.155
3.316,0.175
3.318,0.19
3.32,0.21
3.322,0.225
3.324,0.235
3.326,0.24
3.328,0.24
3.33,0.235
3.332,0.22
3.334,0.205
3.336,0.185
3.338,0.165
3.34,0.15
3.342,0.135
3.344,0.13
3.346,0.13
3.348,0.14
3.35,0.15
3.352,0.165
3.354,0.18
3.356,0.185
3.358,0.185
3.36,0.18
3.362,0.16
3.364,0.14
3.366,0.11
3.368,0.085
3.37,0.06
3.372,0.04
3.374,0.015
3.376,0
3.378,-0.015
3.38,-0.025
3.382,-0.035
3.384,-0.04
3.386,-0.035
3.388,-0.03
3.39,-0.015
3.392,-0.005
3.394,0.005
3.396,0.005
3.398,0
3.4,-0.01
3.402,-0.03
3.404,-0.05
3.406,-0.065
3.408,-0.075
3.41,-0.07
3.412,-0.06
3.414,-0.04
3.416,-0.02
3.418,-0.005
3.42,0
3.422,-0.005
3.424,-0.02
3.426,-0.04
3.428,-0.065
3.43,-0.09
3.432,-0.105
3.434,-0.11
3.436,-0.105
3.438,-0.09
3.44,-0.075
3.442,-0.065
3.444,-0.055
3.446,-0.055
3.448,-0.06
3.45,-0.07
3.452,-0.08
3.454,-0.08
3.456,-0.08
3.458,-0.065
3.46,-0.05
3.462,-0.03
3.464,-0.01
3.466,0
3.468,0.005
3.47,0
3.472,-0.015
3.474,-0.04
3.476,-0.06
3.478,-0.08
3.48,-0.095
3.482,-0.105
3.484,-0.105
3.486,-0.1
3.488,-0.095
3.49,-0.085
3.492,-0.075
3.494,-0.07
3.496,-0.06
3.498,-0.055
3.5,-0.045
3.502,-0.03
3.504,-0.02
3.506,-0.01
3.508,-0.005
3.51,-0.01
3.512,-0.015
3.514,-0.035
3.516,-0.055
3.518,-0.08
3.52,-0.1
3.522,-0.115
3.524,-0.12
3.526,-0.115
3.528,-0.105
3.53,-0.09
3.532,-0.075
3.534,-0.06
3.536,-0.055
3.538,-0.05
3.54,-0.05
3.542,-0.055
3.544,-0.055
3.546,-0.06
3.548,-0.055
3.55,-0.055
3.552,-0.05
3.554,-0.055
3.556,-0.06
3.558,-0.065
3.56,-0.08
3.562,-0.09
3.564,-0.095
3.566,-0.095
3.568,-0.09
3.57,-0.075
3.572,-0.06
3.574,-0.045
3.576,-0.03
3.578,-0.03
3.58,-0.035
3.582,-0.045
3.584,-0.065
3.586,-0.08
3.588,-0.095
3.59,-0.1
3.592,-0.095
3.594,-0.08
3.596,-0.06
3.598,-0.04
3.6,-0.025
3.602,-0.015
3.604,-0.015
3.606,-0.025
3.608,-0.045
3.61,-0.07
3.612,-0.09
3.614,-0.115
3.616,-0.125
3.618,-0.13
3.62,-0.13
3.622,-0.12
3.624,-0.11
3.626,-0.095
3.628,-0.085
3.63,-0.075
3.632,-0.07
3.634,-0.065
3.636,-0.06
3.638,-0.055
3.64,-0.055
3.642,-0.05
3.644,-0.045
3.646,-0.04
3.648,-0.04
3.65,-0.045
3.652,-0.05
3.654,-0.06
3.656,-0.075
3.658,-0.085
3.66,-0.09
3.662,-0.095
3.664,-0.09
3.666,-0.08
3.668,-0.065
3.67,-0.045
3.672,-0.03
3.674,-0.015
3.676,-0.005
3.678,-0.005
3.68,-0.005
3.682,-0.015
3.684,-0.02
3.686,-0.03
3.688,-0.03
3.69,-0.03
3.692,-0.02
3.694,-0.005
3.696,0.01
3.698,0.03
3.7,0.045
3.702,0.055
3.704,0.055
3.706,0.055
3.708,0.045
3.71,0.035
3.712,0.02
3.714,0.01
3.716,0
3.718,-0.005
3.72,-0.005
3.722,-0.005
3.724,0
3.726,0.005
3.728,0.005
3.73,0.005
3.732,-0.005
3.734,-0.015
3.736,-0.03
3.738,-0.045
3.74,-0.06
3.742,-0.08
3.744,-0.095
3.746,-0.105
3.748,-0.11
3.75,-0.115
3.752,-0.11
3.754,-0.105
3.756,-0.095
3.758,-0.085
3.76,-0.08
3.762,-0.075
3.764,-0.075
3.766,-0.085
3.768,-0.1
3.77,-0.12
3.772,-0.145
3.774,-0.17
3.776,-0.19
3.778,-0.205
3.78,-0.205
3.782,-0.195
3.784,-0.175
3.786,-0.145
3.788,-0.1
3.79,-0.05
3.792,0.01
3.794,0.085
3.796,0.165
3.798,0.255
3.8,0.355
3.802,0.465
3.804,0.575
3.806,0.68
3.808,0.775
3.81,0.845
3.812,0.89
3.814,0.905
3.816,0.88
3.818,0.82
3.82,0.73
3.822,0.62
3.824,0.495
3.826,0.375
3.828,0.26
3.83,0.165
3.832,0.09
3.834,0.04
3.836,0.015
3.838,0
3.84,0.005
3.842,0.01
3.844,0.01
3.846,0.005
3.848,-0.005
3.85,-0.025
3.852,-0.055
3.854,-0.085
3.856,-0.115
3.858,-0.135
3.86,-0.145
3.862,-0.145
3.864,-0.135
3.866,-0.12
3.868,-0.1
3.87,-0.08
3.872,-0.065
3.874,-0.055
3.876,-0.055
3.878,-0.06
3.88,-0.065
3.882,-0.075
3.884,-0.085
3.886,-0.09
3.888,-0.09
3.89,-0.095
3.892,-0.1
3.894,-0.1
3.896,-0.105
3.898,-0.11
3.9,-0.11
3.902,-0.11
3.904,-0.1
3.906,-0.09
3.908,-0.075
3.91,-0.06
3.912,-0.045
3.914,-0.04
3.916,-0.035
3.918,-0.04
3.92,-0.055
3.922,-0.07
3.924,-0.085
3.926,-0.1
3.928,-0.11
3.93,-0.115
3.932,-0.115
3.934,-0.11
3.936,-0.105
3.938,-0.095
3.94,-0.09
3.942,-0.085
3.944,-0.075
3.946,-0.07
3.948,-0.06
3.95,-0.05
3.952,-0.035
3.954,-0.025
3.956,-0.015
3.958,-0.01
3.96,-0.01
3.962,-0.01
3.964,-0.015
3.966,-0.025
3.968,-0.03
3.97,-0.035
3.972,-0.04
3.974,-0.035
3.976,-0.025
3.978,-0.01
3.98,0.005
3.982,0.025
3.984,0.045
3.986,0.06
3.988,0.07
3.99,0.075
3.992,0.075
3.994,0.07
3.996,0.06
3.998,0.055
4,0.05
4.002,0.045
4.004,0.05
4.006,0.06
4.008,0.075
4.01,0.09
4.012,0.11
4.014,0.13
4.016,0.15
4.018,0.16
4.02,0.17
4.022,0.175
4.024,0.175
4.026,0.175
4.028,0.175
4.03,0.17
4.032,0.165
4.034,0.16
4.036,0.16
4.038,0.155
4.04,0.155
4.042,0.16
4.044,0.165
4.046,0.175
4.048,0.19
4.05,0.205
4.052,0.22
4.054,0.23
4.056,0.235
4.058,0.235
4.06,0.23
4.062,0.215
4.064,0.2
4.066,0.185
4.068,0.165
4.07,0.155
4.072,0.14
4.074,0.13
4.076,0.12
4.078,0.115
4.08,0.1
4.082,0.09
4.084,0.075
4.086,0.06
4.088,0.045
4.09,0.035
4.092,0.025
4.094,0.015
4.096,0.005
4.098,0
4.1,-0.005
4.102,-0.01
4.104,-0.015
4.106,-0.02
4.108,-0.025
4.11,-0.03
4.112,-0.035
4.114,-0.04
4.116,-0.045
4.118,-0.05
4.12,-0.055
4.122,-0.065
4.124,-0.075
4.126,-0.08
4.128,-0.085
4.13,-0.09
4.132,-0.085
4.134,-0.08
4.136,-0.065
4.138,-0.05
4.14,-0.04
4.142,-0.025
4.144,-0.015
4.146,-0.01
4.148,-0.015
4.15,-0.02
4.152,-0.03
4.154,-0.045
4.156,-0.06
4.158,-0.07
4.16,-0.08
4.162,-0.09
4.164,-0.09
4.166,-0.09
4.168,-0.085
4.17,-0.075
4.172,-0.065
4.174,-0.055
4.176,-0.045
4.178,-0.045
4.18,-0.04
4.182,-0.045
4.184,-0.05
4.186,-0.06
4.188,-0.065
4.19,-0.075
4.192,-0.08
4.194,-0.085
4.196,-0.085
4.198,-0.09
4.2,-0.09
4.202,-0.085
4.204,-0.085
4.206,-0.08
4.208,-0.07
4.21,-0.065
4.212,-0.06
4.214,-0.05
4.216,-0.05
4.218,-0.045
4.22,-0.05
4.222,-0.055
4.224,-0.06
4.226,-0.07
4.228,-0.075
4.23,-0.08
4.232,-0.085
4.234,-0.085
4.236,-0.08
4.238,-0.075
4.24,-0.07
4.242,-0.065
4.244,-0.065
4.246,-0.06
4.248,-0.065
4.25,-0.065
4.252,-0.07
4.254,-0.075
4.256,-0.08
4.258,-0.08
4.26,-0.08
4.262,-0.075
4.264,-0.07
4.266,-0.065
4.268,-0.06
4.27,-0.05
4.272,-0.045
4.274,-0.045
4.276,-0.045
4.278,-0.05
4.28,-0.06
4.282,-0.07
4.284,-0.075
4.286,-0.085
4.288,-0.09
4.29,-0.09
4.292,-0.09
4.294,-0.09
4.296,-0.085
4.298,-0.085
4.3,-0.085
4.302,-0.085
4.304,-0.085
4.306,-0.09
4.308,-0.09
4.31,-0.09
4.312,-0.09
4.314,-0.09
4.316,-0.085
4.318,-0.08
4.32,-0.08
4.322,-0.075
4.324,-0.075
4.326,-0.075
4.328,-0.075
4.33,-0.075
4.332,-0.07
4.334,-0.07
4.336,-0.07
4.338,-0.07
4.34,-0.07
4.342,-0.075
4.344,-0.085
4.346,-0.09
4.348,-0.1
4.35,-0.105
4.352,-0.1
4.354,-0.095
4.356,-0.09
4.358,-0.08
4.36,-0.07
4.362,-0.065
4.364,-0.06
4.366,-0.065
4.368,-0.07
4.37,-0.08
4.372,-0.085
4.374,-0.085
4.376,-0.085
4.378,-0.08
4.38,-0.07
4.382,-0.065
4.384,-0.06
4.386,-0.055
4.388,-0.055
4.39,-0.055
4.392,-0.055
4.394,-0.05
4.396,-0.045
4.398,-0.03
4.4,-0.015
4.402,0.005
4.404,0.02
4.406,0.03
4.408,0.04
4.41,0.045
4.412,0.045
4.414,0.045
4.416,0.04
4.418,0.04
4.42,0.035
4.422,0.03
4.424,0.02
4.426,0.01
4.428,-0.005
4.43,-0.02
4.432,-0.035
4.434,-0.045
4.436,-0.06
4.438,-0.065
4.44,-0.07
4.442,-0.075
4.444,-0.075
4.446,-0.08
4.448,-0.085
4.45,-0.09
4.452,-0.095
4.454,-0.1
4.456,-0.105
4.458,-0.105
4.46,-0.1
4.462,-0.095
4.464,-0.085
4.466,-0.075
4.468,-0.07
4.47,-0.065
4.472,-0.065
4.474,-0.07
4.476,-0.075
4.478,-0.085
4.48,-0.095
4.482,-0.11
4.484,-0.13
4.486,-0.145
4.488,-0.165
4.49,-0.18
4.492,-0.19
4.494,-0.19
4.496,-0.18
4.498,-0.155
4.5,-0.115
4.502,-0.055
4.504,0.01
4.506,0.09
4.508,0.18
4.51,0.275
4.512,0.37
4.514,0.47
4.516,0.56
4.518,0.645
4.52,0.72
4.522,0.77
4.524,0.795
4.526,0.79
4.528,0.75
4.53,0.68
4.532,0.585
4.534,0.47
4.536,0.35
4.538,0.24
4.54,0.14
4.542,0.07
4.544,0.025
4.546,0.005
4.548,0
4.55,0.01
4.552,0.015
4.554,0.015
4.556,0
4.558,-0.02
4.56,-0.055
4.562,-0.09
4.564,-0.12
4.566,-0.14
4.568,-0.145
4.57,-0.135
4.572,-0.115
4.574,-0.095
4.576,-0.075
4.578,-0.07
4.58,-0.07
4.582,-0.085
4.584,-0.105
4.586,-0.13
4.588,-0.145
4.59,-0.15
4.592,-0.145
4.594,-0.125
4.596,-0.095
4.598,-0.07
4.6,-0.045
4.602,-0.035
4.604,-0.035
4.606,-0.045
4.608,-0.065
4.61,-0.09
4.612,-0.105
4.614,-0.115
4.616,-0.115
4.618,-0.105
4.62,-0.095
4.622,-0.08
4.624,-0.07
4.626,-0.065
4.628,-0.06
4.63,-0.06
4.632,-0.065
4.634,-0.065
4.636,-0.06
4.638,-0.055
4.64,-0.05
4.642,-0.045
4.644,-0.045
4.646,-0.05
4.648,-0.06
4.65,-0.07
4.652,-0.08
4.654,-0.085
4.656,-0.085
4.658,-0.07
4.66,-0.055
4.662,-0.03
4.664,-0.01
4.666,0.005
4.668,0.015
4.67,0.015
4.672,0.01
4.674,0.005
4.676,-0.005
4.678,-0.01
4.68,-0.015
4.682,-0.01
4.684,0
4.686,0.01
4.688,0.02
4.69,0.025
4.692,0.03
4.694,0.03
4.696,0.035
4.698,0.035
4.7,0.04
4.702,0.045
4.704,0.055
4.706,0.07
4.708,0.085
4.71,0.095
4.712,0.11
4.714,0.115
4.716,0.12
4.718,0.115
4.72,0.115
4.722,0.11
4.724,0.11
4.726,0.115
4.728,0.12
4.73,0.135
4.732,0.155
4.734,0.175
4.736,0.195
4.738,0.215
4.74,0.225
4.742,0.23
4.744,0.225
4.746,0.215
4.748,0.205
4.75,0.195
4.752,0.19
4.754,0.19
4.756,0.2
4.758,0.215
4.76,0.23
4.762,0.24
4.764,0.245
4.766,0.245
4.768,0.23
4.77,0.21
4.772,0.19
4.774,0.165
4.776,0.15
4.778,0.145
4.78,0.145
4.782,0.15
4.784,0.16
4.786,0.165
4.788,0.16
4.79,0.145
4.792,0.12
4.794,0.09
4.796,0.055
4.798,0.03
4.8,0.005
4.802,-0.01
4.804,-0.01
4.806,-0.01
4.808,0
4.81,0.005
4.812,0.01
4.814,0.01
4.816,0
4.818,-0.01
4.82,-0.02
4.822,-0.035
4.824,-0.04
4.826,-0.05
4.828,-0.05
4.83,-0.055
4.832,-0.055
4.834,-0.065
4.836,-0.07
4.838,-0.08
4.84,-0.09
4.842,-0.1
4.844,-0.1
4.846,-0.1
4.848,-0.09
4.85,-0.08
4.852,-0.065
4.854,-0.05
4.856,-0.04
4.858,-0.035
4.86,-0.035
4.862,-0.035
4.864,-0.04
4.866,-0.05
4.868,-0.06
4.87,-0.07
4.872,-0.08
4.874,-0.085
4.876,-0.09
4.878,-0.095
4.88,-0.1
4.882,-0.1
4.884,-0.1
4.886,-0.095
4.888,-0.085
4.89,-0.075
4.892,-0.065
4.894,-0.055
4.896,-0.05
4.898,-0.045
4.9,-0.045
4.902,-0.05
4.904,-0.055
4.906,-0.065
4.908,-0.075
4.91,-0.08
4.912,-0.085
4.914,-0.08
4.916,-0.075
4.918,-0.07
4.92,-0.06
4.922,-0.055
4.924,-0.05
4.926,-0.055
4.928,-0.055
4.93,-0.065
4.932,-0.07
4.934,-0.07
4.936,-0.07
4.938,-0.065
4.94,-0.055
4.942,-0.045
4.944,-0.04
4.946,-0.035
4.948,-0.035
4.95,-0.04
4.952,-0.055
4.954,-0.065
4.956,-0.08
4.958,-0.095
4.96,-0.1
4.962,-0.095
4.964,-0.09
4.966,-0.075
4.968,-0.06
4.97,-0.045
4.972,-0.035
4.974,-0.035
4.976,-0.035
4.978,-0.045
4.98,-0.055
4.982,-0.07
4.984,-0.085
4.986,-0.095
4.988,-0.1
4.99,-0.1
4.992,-0.095
4.994,-0.09
4.996,-0.08
4.998,-0.075
5,-0.07
5.002,-0.065
5.004,-0.065
5.006,-0.06
5.008,-0.06
5.01,-0.05
5.012,-0.04
5.014,-0.03
5.016,-0.025
5.018,-0.015
5.02,-0.015
5.022,-0.02
5.024,-0.035
5.026,-0.055
5.028,-0.075
5.03,-0.09
5.032,-0.105
5.034,-0.11
5.036,-0.115
5.038,-0.105
5.04,-0.1
5.042,-0.085
5.044,-0.08
5.046,-0.075
5.048,-0.07
5.05,-0.07
5.052,-0.07
5.054,-0.065
5.056,-0.06
5.058,-0.055
5.06,-0.05
5.062,-0.045
5.064,-0.045
5.066,-0.05
5.068,-0.06
5.07,-0.08
5.072,-0.095
5.074,-0.11
5.076,-0.12
5.078,-0.115
5.08,-0.11
5.082,-0.09
5.084,-0.07
5.086,-0.05
5.088,-0.03
5.09,-0.01
5.092,0
5.094,0.01
5.096,0.02
5.098,0.03
5.1,0.04
5.102,0.055
5.104,0.07
5.106,0.08
5.108,0.08
5.11,0.08
5.112,0.065
5.114,0.045
5.116,0.02
5.118,-0.005
5.12,-0.025
5.122,-0.04
5.124,-0.05
5.126,-0.05
5.128,-0.045
5.13,-0.04
5.132,-0.03
5.134,-0.03
5.136,-0.035
5.138,-0.045
5.14,-0.055
5.142,-0.07
5.144,-0.085
5.146,-0.095
5.148,-0.1
5.15,-0.1
5.152,-0.1
5.154,-0.095
5.156,-0.085
5.158,-0.08
5.16,-0.075
5.162,-0.07
5.164,-0.065
5.166,-0.065
5.168,-0.065
5.17,-0.07
5.172,-0.075
5.174,-0.085
5.176,-0.1
5.178,-0.115
5.18,-0.135
5.182,-0.155
5.184,-0.165
5.186,-0.17
5.188,-0.165
5.19,-0.15
5.192,-0.115
5.194,-0.065
5.196,-0.005
5.198,0.07
5.2,0.155
5.202,0.245
5.204,0.34
5.206,0.44
5.208,0.53
5.21,0.62
5.212,0.695
5.214,0.755
5.216,0.79
5.218,0.8
5.22,0.78
5.222,0.73
5.224,0.65
5.226,0.55
5.228,0.44
5.23,0.325
5.232,0.22
5.234,0.13
5.236,0.06
5.238,0.01
5.24,-0.015
5.242,-0.02
5.244,-0.015
5.246,-0.005
5.248,0.005
5.25,0.01
5.252,0.01
5.254,0
5.256,-0.015
5.258,-0.035
5.26,-0.055
5.262,-0.075
5.264,-0.085
5.266,-0.095
5.268,-0.1
5.27,-0.095
5.272,-0.09
5.274,-0.085
5.276,-0.08
5.278,-0.08
5.28,-0.08
5.282,-0.08
5.284,-0.09
5.286,-0.095
5.288,-0.105
5.29,-0.11
5.292,-0.115
5.294,-0.12
5.296,-0.125
5.298,-0.125
5.3,-0.125
5.302,-0.12
5.304,-0.115
5.306,-0.105
5.308,-0.09
5.31,-0.075
5.312,-0.06
5.314,-0.05
5.316,-0.04
5.318,-0.035
5.32,-0.035
5.322,-0.045
5.324,-0.055
5.326,-0.065
5.328,-0.075
5.33,-0.085
5.332,-0.085
5.334,-0.085
5.336,-0.08
5.338,-0.07
5.34,-0.065
5.342,-0.06
5.344,-0.05
5.346,-0.05
5.348,-0.045
5.35,-0.04
5.352,-0.035
5.354,-0.03
5.356,-0.02
5.358,-0.015
5.36,-0.01
5.362,-0.015
5.364,-0.015
5.366,-0.025
5.368,-0.04
5.37,-0.05
5.372,-0.06
5.374,-0.065
5.376,-0.065
5.378,-0.055
5.38,-0.04
5.382,-0.025
5.384,-0.01
5.386,0.005
5.388,0.02
5.39,0.025
5.392,0.025
5.394,0.02
5.396,0.02
5.398,0.02
5.4,0.02
5.402,0.03
5.404,0.045
5.406,0.06
5.408,0.075
5.41,0.09
5.412,0.105
5.414,0.115
5.416,0.12
5.418,0.125
5.42,0.13
5.422,0.135
5.424,0.135
5.426,0.14
5.428,0.145
5.43,0.15
5.432,0.16
5.434,0.165
5.436,0.175
5.438,0.18
5.44,0.19
5.442,0.2
5.444,0.205
5.446,0.21
5.448,0.21
5.45,0.205
5.452,0.2
5.454,0.19
5.456,0.185
5.458,0.175
5.46,0.17
5.462,0.17
5.464,0.17
5.466,0.175
5.468,0.18
5.47,0.18
5.472,0.175
5.474,0.16
5.476,0.145
5.478,0.125
5.48,0.105
5.482,0.08
5.484,0.06
5.486,0.045
5.488,0.03
5.49,0.02
5.492,0.01
5.494,0.005
5.496,0
5.498,-0.005
5.5,-0.01
5.502,-0.015
5.504,-0.015
5.506,-0.02
5.508,-0.02
5.51,-0.02
5.512,-0.025
5.514,-0.03
5.516,-0.035
5.518,-0.045
5.52,-0.055
5.522,-0.065
5.524,-0.075
5.526,-0.085
5.528,-0.09
5.53,-0.095
5.532,-0.095
5.534,-0.095
5.536,-0.09
5.538,-0.085
5.54,-0.08
5.542,-0.075
5.544,-0.07
5.546,-0.065
5.548,-0.06
5.55,-0.06
5.552,-0.055
5.554,-0.055
5.556,-0.06
5.558,-0.065
5.56,-0.07
5.562,-0.075
5.564,-0.08
5.566,-0.085
5.568,-0.09
5.57,-0.095
5.572,-0.095
5.574,-0.09
5.576,-0.085
5.578,-0.075
5.58,-0.06
5.582,-0.05
5.584,-0.04
5.586,-0.03
5.588,-0.03
5.59,-0.04
5.592,-0.05
5.594,-0.07
5.596,-0.085
5.598,-0.105
5.6,-0.11
5.602,-0.115
5.604,-0.11
5.606,-0.1
5.608,-0.085
5.61,-0.07
5.612,-0.06
5.614,-0.055
5.616,-0.055
5.618,-0.06
5.62,-0.07
5.622,-0.08
5.624,-0.085
5.626,-0.09
5.628,-0.09
5.63,-0.085
5.632,-0.08
5.634,-0.075
5.636,-0.075
5.638,-0.075
5.64,-0.075
5.642,-0.075
5.644,-0.075
5.646,-0.075
5.648,-0.07
5.65,-0.065
5.652,-0.055
5.654,-0.05
5.656,-0.045
5.658,-0.045
5.66,-0.05
5.662,-0.06
5.664,-0.075
5.666,-0.09
5.668,-0.1
5.67,-0.11
5.672,-0.115
5.674,-0.115
5.676,-0.105
5.678,-0.095
5.68,-0.08
5.682,-0.065
5.684,-0.055
5.686,-0.045
5.688,-0.045
5.69,-0.05
5.692,-0.06
5.694,-0.075
5.696,-0.085
5.698,-0.1
5.7,-0.105
5.702,-0.105
5.704,-0.1
5.706,-0.09
5.708,-0.075
5.71,-0.065
5.712,-0.05
5.714,-0.045
5.716,-0.045
5.718,-0.05
5.72,-0.06
5.722,-0.07
5.724,-0.075
5.726,-0.085
5.728,-0.085
5.73,-0.09
5.732,-0.085
5.734,-0.085
5.736,-0.08
5.738,-0.08
5.74,-0.075
5.742,-0.07
5.744,-0.07
5.746,-0.065
5.748,-0.065
5.75,-0.065
5.752,-0.06
5.754,-0.065
5.756,-0.065
5.758,-0.065
5.76,-0.065
5.762,-0.065
5.764,-0.06
5.766,-0.055
5.768,-0.045
5.77,-0.035
5.772,-0.03
5.774,-0.02
5.776,-0.015
5.778,-0.005
5.78,0
5.782,0.01
5.784,0.02
5.786,0.03
5.788,0.045
5.79,0.055
5.792,0.055
5.794,0.055
5.796,0.04
5.798,0.025
5.8,0
5.802,-0.025
5.804,-0.04
5.806,-0.055
5.808,-0.055
5.81,-0.045
5.812,-0.03
5.814,-0.015
5.816,-0.005
5.818,0
5.82,-0.01
5.822,-0.025
5.824,-0.05
5.826,-0.075
5.828,-0.1
5.83,-0.115
5.832,-0.115
5.834,-0.11
5.836,-0.1
5.838,-0.085
5.84,-0.07
5.842,-0.065
5.844,-0.06
5.846,-0.065
5.848,-0.075
5.85,-0.085
5.852,-0.09
5.854,-0.095
5.856,-0.095
5.858,-0.09
5.86,-0.09
5.862,-0.095
5.864,-0.105
5.866,-0.12
5.868,-0.145
5.87,-0.17
5.872,-0.19
5.874,-0.2
5.876,-0.2
5.878,-0.175
5.88,-0.13
5.882,-0.07
5.884,0.015
5.886,0.105
5.888,0.205
5.89,0.315
5.892,0.425
5.894,0.53
5.896,0.635
5.898,0.735
5.9,0.82
5.902,0.885
5.904,0.92
5.906,0.925
5.908,0.895
5.91,0.825
5.912,0.72
5.914,0.59
5.916,0.455
5.918,0.32
5.92,0.205
5.922,0.12
5.924,0.065
5.926,0.04
5.928,0.04
5.93,0.055
5.932,0.065
5.934,0.07
5.936,0.055
5.938,0.025
5.94,-0.02
5.942,-0.07
5.944,-0.115
5.946,-0.15
5.948,-0.165
5.95,-0.165
5.952,-0.15
5.954,-0.125
5.956,-0.1
5.958,-0.075
5.96,-0.055
5.962,-0.05
5.964,-0.055
5.966,-0.065
5.968,-0.08
5.97,-0.095
5.972,-0.115
5.974,-0.13
5.976,-0.14
5.978,-0.145
5.98,-0.145
5.982,-0.135
5.984,-0.125
5.986,-0.11
5.988,-0.09
5.99,-0.075
5.992,-0.06
5.994,-0.05
5.996,-0.05
5.998,-0.055
6,-0.065
6.002,-0.08
6.004,-0.095
6.006,-0.1
6.008,-0.105
6.01,-0.1
6.012,-0.09
6.014,-0.075
6.016,-0.06
6.018,-0.045
6.02,-0.04
6.022,-0.04
6.024,-0.045
6.026,-0.05
6.028,-0.065
6.03,-0.075
6.032,-0.08
6.034,-0.08
6.036,-0.07
6.038,-0.06
6.04,-0.04
6.042,-0.02
6.044,-0.005
6.046,0.01
6.048,0.015
6.05,0.01
6.052,0
6.054,-0.02
6.056,-0.04
6.058,-0.055
6.06,-0.065
6.062,-0.065
6.064,-0.055
6.066,-0.035
6.068,-0.01
6.07,0.02
6.072,0.045
6.074,0.065
6.076,0.075
6.078,0.075
6.08,0.07
6.082,0.055
6.084,0.045
6.086,0.035
6.088,0.03
6.09,0.03
6.092,0.04
6.094,0.05
6.096,0.065
6.098,0.085
6.1,0.1
6.102,0.115
6.104,0.13
6.106,0.14
6.108,0.155
6.11,0.17
6.112,0.18
6.114,0.185
6.116,0.19
6.118,0.19
6.12,0.185
6.122,0.175
6.124,0.17
6.126,0.165
6.128,0.165
6.13,0.17
6.132,0.18
6.134,0.195
6.136,0.21
6.138,0.22
6.14,0.225
6.142,0.225
6.144,0.22
6.146,0.205
6.148,0.19
6.15,0.175
6.152,0.16
6.154,0.15
6.156,0.145
6.158,0.145
6.16,0.145
6.162,0.15
6.164,0.15
6.166,0.145
6.168,0.14
6.17,0.135
6.172,0.125
6.174,0.11
6.176,0.1
6.178,0.085
6.18,0.07
6.182,0.055
6.184,0.04
6.186,0.02
6.188,0.005
6.19,-0.01
6.192,-0.02
6.194,-0.03
6.196,-0.035
6.198,-0.035
6.2,-0.03
6.202,-0.03
6.204,-0.025
6.206,-0.025
6.208,-0.03
6.21,-0.035
6.212,-0.04
6.214,-0.05
6.216,-0.055
6.218,-0.06
6.22,-0.065
6.222,-0.065
6.224,-0.06
6.226,-0.055
6.228,-0.055
6.23,-0.05
6.232,-0.055
6.234,-0.055
6.236,-0.065
6.238,-0.07
6.24,-0.07
6.242,-0.075
6.244,-0.07
6.246,-0.065
6.248,-0.06
6.25,-0.05
6.252,-0.04
6.254,-0.03
6.256,-0.025
6.258,-0.02
6.26,-0.015
6.262,-0.02
6.264,-0.025
6.266,-0.03
6.268,-0.04
6.27,-0.05
6.272,-0.06
6.274,-0.07
6.276,-0.08
6.278,-0.09
6.28,-0.09
6.282,-0.09
6.284,-0.08
6.286,-0.07
6.288,-0.05
6.29,-0.035
6.292,-0.02
6.294,-0.01
6.296,-0.005
6.298,-0.01
6.3,-0.02
6.302,-0.035
6.304,-0.05
6.306,-0.06
6.308,-0.065
6.31,-0.065
6.312,-0.06
6.314,-0.045
6.316,-0.03
6.318,-0.02
6.32,-0.015
6.322,-0.02
6.324,-0.03
6.326,-0.05
6.328,-0.07
6.33,-0.09
6.332,-0.1
6.334,-0.105
6.336,-0.1
6.338,-0.085
6.34,-0.07
6.342,-0.055
6.344,-0.04
6.346,-0.035
6.348,-0.035
6.35,-0.045
6.352,-0.055
6.354,-0.07
6.356,-0.08
6.358,-0.09
6.36,-0.095
6.362,-0.09
6.364,-0.085
6.366,-0.08
6.368,-0.075
6.37,-0.07
6.372,-0.065
6.374,-0.06
6.376,-0.06
6.378,-0.06
6.38,-0.06
6.382,-0.06
6.384,-0.06
6.386,-0.065
6.388,-0.065
6.39,-0.07
6.392,-0.07
6.394,-0.065
6.396,-0.065
6.398,-0.06
6.4,-0.05
6.402,-0.045
6.404,-0.04
6.406,-0.045
6.408,-0.05
6.41,-0.065
6.412,-0.08
6.414,-0.095
6.416,-0.105
6.418,-0.115
6.42,-0.115
6.422,-0.11
6.424,-0.1
6.426,-0.085
6.428,-0.07
6.43,-0.06
6.432,-0.05
6.434,-0.05
6.436,-0.05
6.438,-0.055
6.44,-0.065
6.442,-0.07
6.444,-0.08
6.446,-0.085
6.448,-0.09
6.45,-0.095
6.452,-0.095
6.454,-0.09
6.456,-0.08
6.458,-0.06
6.46,-0.03
6.462,0
6.464,0.03
6.466,0.06
6.468,0.08
6.47,0.09
6.472,0.085
6.474,0.07
6.476,0.055
6.478,0.03
6.48,0.015
6.482,0.005
6.484,0
6.486,0.005
6.488,0.01
6.49,0.015
6.492,0.015
6.494,0
6.496,-0.02
6.498,-0.05
6.5,-0.08
6.502,-0.11
6.504,-0.135
6.506,-0.145
6.508,-0.145
6.51,-0.13
6.512,-0.115
6.514,-0.09
6.516,-0.075
6.518,-0.065
6.52,-0.06
6.522,-0.07
6.524,-0.08
6.526,-0.095
6.528,-0.105
6.53,-0.11
6.532,-0.11
6.534,-0.1
6.536,-0.09
6.538,-0.08
6.54,-0.07
6.542,-0.07
6.544,-0.08
6.546,-0.1
6.548,-0.125
6.55,-0.155
6.552,-0.18
6.554,-0.19
6.556,-0.19
6.558,-0.165
6.56,-0.125
6.562,-0.065
6.564,0.005
6.566,0.09
6.568,0.18
6.57,0.27
6.572,0.365
6.574,0.46
6.576,0.555
6.578,0.645
6.58,0.725
6.582,0.795
6.584,0.845
6.586,0.865
6.588,0.855
6.59,0.81
6.592,0.73
6.594,0.63
6.596,0.51
6.598,0.385
6.6,0.265
6.602,0.16
6.604,0.08
6.606,0.025
6.608,-0.005
6.61,-0.02
6.612,-0.025
6.614,-0.02
6.616,-0.02
6.618,-0.025
6.62,-0.035
6.622,-0.05
6.624,-0.065
6.626,-0.085
6.628,-0.1
6.63,-0.115
6.632,-0.125
6.634,-0.13
6.636,-0.13
6.638,-0.125
6.64,-0.115
6.642,-0.105
6.644,-0.095
6.646,-0.085
6.648,-0.08
6.65,-0.085
6.652,-0.095
6.654,-0.11
6.656,-0.125
6.658,-0.14
6.66,-0.155
6.662,-0.165
6.664,-0.165
6.666,-0.16
6.668,-0.15
6.67,-0.135
6.672,-0.12
6.674,-0.105
6.676,-0.095
6.678,-0.09
6.68,-0.09
6.682,-0.09
6.684,-0.1
6.686,-0.105
6.688,-0.115
6.69,-0.12
6.692,-0.125
6.694,-0.12
6.696,-0.115
6.698,-0.105
6.7,-0.095
6.702,-0.085
6.704,-0.075
6.706,-0.065
6.708,-0.065
6.71,-0.07
6.712,-0.075
6.714,-0.085
6.716,-0.095
6.718,-0.1
6.72,-0.1
6.722,-0.09
6.724,-0.075
6.726,-0.055
6.728,-0.04
6.73,-0.025
6.732,-0.02
6.734,-0.02
6.736,-0.03
6.738,-0.04
6.74,-0.055
6.742,-0.065
6.744,-0.07
6.746,-0.07
6.748,-0.06
6.75,-0.05
6.752,-0.035
6.754,-0.02
6.756,-0.01
6.758,0.005
6.76,0.01
6.762,0.02
6.764,0.025
6.766,0.03
6.768,0.035
6.77,0.04
6.772,0.04
6.774,0.045
6.776,0.045
6.778,0.045
6.78,0.045
6.782,0.05
6.784,0.06
6.786,0.075
6.788,0.095
6.79,0.115
6.792,0.14
6.794,0.165
6.796,0.18
6.798,0.19
6.8,0.195
6.802,0.19
6.804,0.18
6.806,0.165
6.808,0.155
6.81,0.145
6.812,0.14
6.814,0.135
6.816,0.14
6.818,0.145
6.82,0.155
6.822,0.16
6.824,0.165
6.826,0.17
6.828,0.175
6.83,0.18
6.832,0.18
6.834,0.18
6.836,0.175
6.838,0.17
6.84,0.16
6.842,0.145
6.844,0.125
6.846,0.105
6.848,0.085
6.85,0.065
6.852,0.055
6.854,0.045
6.856,0.04
6.858,0.04
6.86,0.035
6.862,0.03
6.864,0.02
6.866,0
6.868,-0.02
6.87,-0.04
6.872,-0.06
6.874,-0.075
6.876,-0.08
6.878,-0.075
6.88,-0.07
6.882,-0.06
6.884,-0.045
6.886,-0.04
6.888,-0.04
6.89,-0.04
6.892,-0.05
6.894,-0.06
6.896,-0.065
6.898,-0.07
6.9,-0.075
6.902,-0.075
6.904,-0.08
6.906,-0.085
6.908,-0.09
6.91,-0.1
6.912,-0.105
6.914,-0.11
6.916,-0.105
6.918,-0.095
6.92,-0.08
6.922,-0.06
6.924,-0.04
6.926,-0.025
6.928,-0.02
6.93,-0.025
6.932,-0.04
6.934,-0.055
6.936,-0.075
6.938,-0.085
6.94,-0.09
6.942,-0.085
6.944,-0.07
6.946,-0.055
6.948,-0.04
6.95,-0.035
6.952,-0.03
6.954,-0.035
6.956,-0.05
6.958,-0.065
6.96,-0.075
6.962,-0.085
6.964,-0.09
6.966,-0.095
6.968,-0.09
6.97,-0.085
6.972,-0.085
6.974,-0.08
6.976,-0.075
6.978,-0.075
6.98,-0.07
6.982,-0.065
6.984,-0.06
6.986,-0.05
6.988,-0.045
6.99,-0.045
6.992,-0.05
6.994,-0.06
6.996,-0.075
6.998,-0.09
7,-0.1
7.002,-0.11
7.004,-0.115
7.006,-0.115
7.008,-0.11
7.01,-0.1
7.012,-0.09
7.014,-0.08
7.016,-0.075
7.018,-0.08
7.02,-0.08
7.022,-0.085
7.024,-0.09
7.026,-0.09
7.028,-0.085
7.03,-0.08
7.032,-0.065
7.034,-0.055
7.036,-0.045
7.038,-0.035
7.04,-0.035
7.042,-0.04
7.044,-0.055
7.046,-0.07
7.048,-0.09
7.05,-0.105
7.052,-0.115
7.054,-0.125
7.056,-0.12
7.058,-0.115
7.06,-0.105
7.062,-0.09
7.064,-0.075
7.066,-0.065
7.068,-0.055
7.07,-0.05
7.072,-0.05
7.074,-0.05
7.076,-0.05
7.078,-0.055
7.08,-0.06
7.082,-0.065
7.084,-0.075
7.086,-0.085
7.088,-0.095
7.09,-0.1
7.092,-0.1
7.094,-0.1
7.096,-0.09
7.098,-0.085
7.1,-0.075
7.102,-0.07
7.104,-0.07
7.106,-0.08
7.108,-0.09
7.11,-0.105
7.112,-0.115
7.114,-0.12
7.116,-0.115
7.118,-0.11
7.12,-0.095
7.122,-0.075
7.124,-0.06
7.126,-0.05
7.128,-0.045
7.13,-0.045
7.132,-0.05
7.134,-0.055
7.136,-0.06
7.138,-0.055
7.14,-0.045
7.142,-0.03
7.144,-0.015
7.146,0
7.148,0.01
7.15,0.015
7.152,0.015
7.154,0.01
7.156,0.005
7.158,0.005
7.16,0.005
7.162,0.015
7.164,0.03
7.166,0.04
7.168,0.05
7.17,0.055
7.172,0.045
7.174,0.03
7.176,0.01
7.178,-0.015
7.18,-0.04
7.182,-0.06
7.184,-0.075
7.186,-0.085
7.188,-0.085
7.19,-0.085
7.192,-0.08
7.194,-0.08
7.196,-0.08
7.198,-0.085
7.2,-0.085
7.202,-0.09
7.204,-0.095
7.206,-0.095
7.208,-0.09
7.21,-0.09
7.212,-0.085
7.214,-0.08
7.216,-0.075
7.218,-0.075
7.22,-0.075
7.222,-0.08
7.224,-0.09
7.226,-0.105
7.228,-0.115
7.23,-0.13
7.232,-0.145
7.234,-0.155
7.236,-0.165
7.238,-0.175
7.24,-0.175
7.242,-0.17
7.244,-0.16
7.246,-0.145
7.248,-0.11
7.25,-0.07
7.252,-0.01
7.254,0.07
7.256,0.16
7.258,0.265
7.26,0.38
7.262,0.5
7.264,0.615
7.266,0.715
7.268,0.8
7.27,0.855
7.272,0.88
7.274,0.87
7.276,0.83
7.278,0.755
7.28,0.66
7.282,0.555
7.284,0.44
7.286,0.33
7.288,0.23
7.29,0.15
7.292,0.085
7.294,0.045
7.296,0.02
7.298,0.005
7.3,-0.005
7.302,-0.015
7.304,-0.025
7.306,-0.04
7.308,-0.06
7.31,-0.085
7.312,-0.105
7.314,-0.125
7.316,-0.135
7.318,-0.14
7.32,-0.14
7.322,-0.13
7.324,-0.12
7.326,-0.11
7.328,-0.105
7.33,-0.105
7.332,-0.105
7.334,-0.105
7.336,-0.11
7.338,-0.115
7.34,-0.115
7.342,-0.115
7.344,-0.115
7.346,-0.11
7.348,-0.105
7.35,-0.105
7.352,-0.1
7.354,-0.1
7.356,-0.1
7.358,-0.1
7.36,-0.1
7.362,-0.1
7.364,-0.1
7.366,-0.1
7.368,-0.095
7.37,-0.1
7.372,-0.1
7.374,-0.105
7.376,-0.11
7.378,-0.115
7.38,-0.12
7.382,-0.115
7.384,-0.11
7.386,-0.1
7.388,-0.09
7.39,-0.075
7.392,-0.065
7.394,-0.06
7.396,-0.055
7.398,-0.06
7.4,-0.065
7.402,-0.07
7.404,-0.075
7.406,-0.075
7.408,-0.075
7.41,-0.065
7.412,-0.055
7.414,-0.045
7.416,-0.04
7.418,-0.03
7.42,-0.03
7.422,-0.035
7.424,-0.04
7.426,-0.04
7.428,-0.04
7.43,-0.035
7.432,-0.025
7.434,-0.01
7.436,0.01
7.438,0.025
7.44,0.04
7.442,0.05
7.444,0.05
7.446,0.045
7.448,0.04
7.45,0.03
7.452,0.025
7.454,0.025
7.456,0.03
7.458,0.04
7.46,0.055
7.462,0.07
7.464,0.085
7.466,0.095
7.468,0.105
7.47,0.105
7.472,0.11
7.474,0.11
7.476,0.115
7.478,0.125
7.48,0.135
7.482,0.145
7.484,0.15
7.486,0.155
7.488,0.155
7.49,0.155
7.492,0.155
7.494,0.155
7.496,0.155
7.498,0.16
7.5,0.17
7.502,0.18
7.504,0.19
7.506,0.195
7.508,0.195
7.51,0.19
7.512,0.18
7.514,0.17
7.516,0.155
7.518,0.15
7.52,0.15
7.522,0.16
7.524,0.17
7.526,0.185
7.528,0.195
7.53,0.205
7.532,0.2
7.534,0.185
7.536,0.16
7.538,0.13
7.54,0.095
7.542,0.065
7.544,0.035
7.546,0.015
7.548,0
7.55,-0.005
7.552,-0.005
7.554,0
7.556,0
7.558,-0.005
7.56,-0.01
7.562,-0.015
7.564,-0.025
7.566,-0.035
7.568,-0.045
7.57,-0.055
7.572,-0.06
7.574,-0.06
7.576,-0.06
7.578,-0.065
7.58,-0.065
7.582,-0.065
7.584,-0.07
7.586,-0.07
7.588,-0.07
7.59,-0.07
7.592,-0.065
7.594,-0.055
7.596,-0.05
7.598,-0.04
7.6,-0.035
7.602,-0.03
7.604,-0.03
7.606,-0.03
7.608,-0.035
7.61,-0.04
7.612,-0.045
7.614,-0.05
7.616,-0.06
7.618,-0.065
7.62,-0.075
7.622,-0.08
7.624,-0.09
7.626,-0.095
7.628,-0.1
7.63,-0.095
7.632,-0.09
7.634,-0.085
7.636,-0.07
7.638,-0.06
7.64,-0.055
7.642,-0.05
7.644,-0.05
7.646,-0.055
7.648,-0.065
7.65,-0.07
7.652,-0.08
7.654,-0.085
7.656,-0.08
7.658,-0.075
7.66,-0.065
7.662,-0.055
7.664,-0.045
7.666,-0.04
7.668,-0.04
7.67,-0.04
7.672,-0.045
7.674,-0.055
7.676,-0.07
7.678,-0.08
7.68,-0.085
7.682,-0.09
7.684,-0.09
7.686,-0.09
7.688,-0.085
7.69,-0.075
7.692,-0.065
7.694,-0.055
7.696,-0.05
7.698,-0.045
7.7,-0.04
7.702,-0.04
7.704,-0.045
7.706,-0.055
7.708,-0.06
7.71,-0.065
7.712,-0.07
7.714,-0.07
7.716,-0.07
7.718,-0.07
7.72,-0.065
7.722,-0.06
7.724,-0.06
7.726,-0.065
7.728,-0.07
7.73,-0.075
7.732,-0.08
7.734,-0.085
7.736,-0.085
7.738,-0.085
7.74,-0.085
7.742,-0.08
7.744,-0.07
7.746,-0.06
7.748,-0.055
7.75,-0.05
7.752,-0.045
7.754,-0.05
7.756,-0.05
7.758,-0.06
7.76,-0.07
7.762,-0.08
7.764,-0.085
7.766,-0.09
7.768,-0.09
7.77,-0.085
7.772,-0.075
7.774,-0.065
7.776,-0.055
7.778,-0.05
7.78,-0.045
7.782,-0.05
7.784,-0.055
7.786,-0.065
7.788,-0.075
7.79,-0.08
7.792,-0.08
7.794,-0.075
7.796,-0.065
7.798,-0.055
7.8,-0.04
7.802,-0.03
7.804,-0.02
7.806,-0.02
7.808,-0.015
7.81,-0.015
7.812,-0.015
7.814,-0.015
7.816,-0.015
7.818,-0.01
7.82,0
7.822,0.005
7.824,0.01
7.826,0.015
7.828,0.025
7.83,0.03
7.832,0.035
7.834,0.04
7.836,0.04
7.838,0.04
7.84,0.03
7.842,0.02
7.844,0.005
7.846,-0.015
7.848,-0.03
7.85,-0.045
7.852,-0.05
7.854,-0.045
7.856,-0.04
7.858,-0.025
7.86,-0.01
7.862,-0.005
7.864,-0.005
7.866,-0.01
7.868,-0.025
7.87,-0.05
7.872,-0.07
7.874,-0.09
7.876,-0.105
7.878,-0.11
7.88,-0.11
7.882,-0.105
7.884,-0.095
7.886,-0.085
7.888,-0.075
7.89,-0.065
7.892,-0.06
7.894,-0.06
7.896,-0.055
7.898,-0.06
7.9,-0.065
7.902,-0.075
7.904,-0.095
7.906,-0.12
7.908,-0.145
7.91,-0.175
7.912,-0.195
7.914,-0.2
7.916,-0.19
7.918,-0.16
7.92,-0.11
7.922,-0.04
7.924,0.045
7.926,0.135
7.928,0.235
7.93,0.335
7.932,0.43
7.934,0.52
7.936,0.6
7.938,0.675
7.94,0.735
7.942,0.78
7.944,0.8
7.946,0.79
7.948,0.755
7.95,0.69
7.952,0.6
7.954,0.495
7.956,0.38
7.958,0.27
7.96,0.17
7.962,0.09
7.964,0.03
7.966,-0.005
7.968,-0.025
7.97,-0.03
7.972,-0.025
7.974,-0.02
7.976,-0.015
7.978,-0.02
7.98,-0.025
7.982,-0.035
7.984,-0.05
7.986,-0.07
7.988,-0.085
7.99,-0.095
7.992,-0.105
7.994,-0.11
7.996,-0.11
7.998,-0.1
8,-0.09
8.002,-0.08
8.004,-0.065
8.006,-0.055
8.008,-0.045
8.01,-0.045
8.012,-0.045
8.014,-0.055
8.016,-0.065
8.018,-0.08
8.02,-0.09
8.022,-0.1
8.024,-0.105
8.026,-0.105
8.028,-0.1
8.03,-0.085
8.032,-0.075
8.034,-0.06
8.036,-0.05
8.038,-0.045
8.04,-0.04
8.042,-0.045
8.044,-0.05
8.046,-0.06
8.048,-0.065
8.05,-0.07
8.052,-0.07
8.054,-0.07
8.056,-0.06
8.058,-0.055
8.06,-0.05
8.062,-0.05
8.064,-0.055
8.066,-0.065
8.068,-0.07
8.07,-0.075
8.072,-0.075
8.074,-0.065
8.076,-0.045
8.078,-0.02
8.08,0.01
8.082,0.035
8.084,0.05
8.086,0.055
8.088,0.05
8.09,0.03
8.092,0.01
8.094,-0.015
8.096,-0.035
8.098,-0.04
8.1,-0.04
8.102,-0.025
8.104,-0.005
8.106,0.015
8.108,0.035
8.11,0.045
8.112,0.055
8.114,0.055
8.116,0.055
8.118,0.05
8.12,0.05
8.122,0.055
8.124,0.06
8.126,0.07
8.128,0.08
8.13,0.095
8.132,0.105
8.134,0.11
8.136,0.12
8.138,0.13
8.14,0.14
8.142,0.15
8.144,0.165
8.146,0.175
8.148,0.185
8.15,0.19
8.152,0.19
8.154,0.185
8.156,0.18
8.158,0.175
8.16,0.17
8.162,0.17
8.164,0.175
8.166,0.185
8.168,0.2
8.17,0.22
8.172,0.235
8.174,0.25
8.176,0.26
8.178,0.265
8.18,0.26
8.182,0.255
8.184,0.24
8.186,0.22
8.188,0.205
8.19,0.185
8.192,0.17
8.194,0.155
8.196,0.15
8.198,0.15
8.2,0.15
8.202,0.155
8.204,0.16
8.206,0.16
8.208,0.16
8.21,0.145
8.212,0.13
8.214,0.105
8.216,0.08
8.218,0.055
8.22,0.035
8.222,0.02
8.224,0.015
8.226,0.01
8.228,0.01
8.23,0.01
8.232,0.01
8.234,0.005
8.236,-0.005
8.238,-0.02
8.24,-0.03
8.242,-0.04
8.244,-0.045
8.246,-0.045
8.248,-0.045
8.25,-0.04
8.252,-0.035
8.254,-0.03
8.256,-0.035
8.258,-0.04
8.26,-0.05
8.262,-0.06
8.264,-0.065
8.266,-0.065
8.268,-0.06
8.27,-0.05
8.272,-0.04
8.274,-0.035
8.276,-0.03
8.278,-0.035
8.28,-0.05
8.282,-0.07
8.284,-0.09
8.286,-0.105
8.288,-0.11
8.29,-0.11
8.292,-0.1
8.294,-0.08
8.296,-0.06
8.298,-0.035
8.3,-0.02
8.302,-0.01
8.304,-0.01
8.306,-0.015
8.308,-0.025
8.31,-0.03
8.312,-0.04
8.314,-0.045
8.316,-0.05
8.318,-0.055
8.32,-0.06
8.322,-0.06
8.324,-0.065
8.326,-0.065
8.328,-0.065
8.33,-0.06
8.332,-0.05
8.334,-0.035
8.336,-0.015
8.338,0
8.34,0.015
8.342,0.02
8.344,0.02
8.346,0.015
8.348,0
8.35,-0.015
8.352,-0.035
8.354,-0.05
8.356,-0.065
8.358,-0.07
8.36,-0.07
8.362,-0.06
8.364,-0.05
8.366,-0.035
8.368,-0.025
8.37,-0.015
8.372,-0.01
8.374,-0.01
8.376,-0.02
8.378,-0.04
8.38,-0.06
8.382,-0.075
8.384,-0.09
8.386,-0.095
8.388,-0.095
8.39,-0.08
8.392,-0.055
8.394,-0.035
8.396,-0.015
8.398,0
8.4,0
8.402,-0.005
8.404,-0.02
8.406,-0.04
8.408,-0.06
8.41,-0.07
8.412,-0.07
8.414,-0.065
8.416,-0.055
8.418,-0.04
8.42,-0.03
8.422,-0.02
8.424,-0.02
8.426,-0.025
8.428,-0.03
8.43,-0.03
8.432,-0.03
8.434,-0.025
8.436,-0.01
8.438,0
8.44,0.01
8.442,0.015
8.444,0.005
8.446,-0.01
8.448,-0.035
8.45,-0.065
8.452,-0.09
8.454,-0.105
8.456,-0.105
8.458,-0.1
8.46,-0.08
8.462,-0.055
8.464,-0.035
8.466,-0.015
8.468,-0.005
8.47,-0.005
8.472,-0.01
8.474,-0.015
8.476,-0.025
8.478,-0.035
8.48,-0.035
8.482,-0.03
8.484,-0.025
8.486,-0.01
8.488,0
8.49,0.015
8.492,0.025
8.494,0.035
8.496,0.045
8.498,0.05
8.5,0.06
8.502,0.07
8.504,0.075
8.506,0.08
8.508,0.08
8.51,0.075
8.512,0.065
8.514,0.05
8.516,0.03
8.518,0.01
8.52,-0.01
8.522,-0.03
8.524,-0.045
8.526,-0.055
8.528,-0.065
8.53,-0.065
8.532,-0.065
8.534,-0.055
8.536,-0.045
8.538,-0.03
8.54,-0.015
8.542,-0.005
8.544,0
8.546,0
8.548,-0.01
8.55,-0.03
8.552,-0.055
8.554,-0.08
8.556,-0.1
8.558,-0.115
8.56,-0.12
8.562,-0.11
8.564,-0.095
8.566,-0.075
8.568,-0.06
8.57,-0.05
8.572,-0.055
8.574,-0.07
8.576,-0.095
8.578,-0.12
8.58,-0.135
8.582,-0.14
8.584,-0.125
8.586,-0.085
8.588,-0.025
8.59,0.055
8.592,0.145
8.594,0.24
8.596,0.335
8.598,0.43
8.6,0.525
8.602,0.615
8.604,0.7
8.606,0.775
8.608,0.835
8.61,0.875
8.612,0.88
8.614,0.85
8.616,0.785
8.618,0.68
8.62,0.555
8.622,0.415
8.624,0.285
8.626,0.175
8.628,0.095
8.63,0.05
8.632,0.03
8.634,0.035
8.636,0.05
8.638,0.06
8.64,0.06
8.642,0.05
8.644,0.025
8.646,-0.01
8.648,-0.045
8.65,-0.07
8.652,-0.09
8.654,-0.09
8.656,-0.085
8.658,-0.07
8.66,-0.055
8.662,-0.04
8.664,-0.03
8.666,-0.03
8.668,-0.035
8.67,-0.04
8.672,-0.05
8.674,-0.055
8.676,-0.06
8.678,-0.06
8.68,-0.06
8.682,-0.06
8.684,-0.065
8.686,-0.07
8.688,-0.075
8.69,-0.085
8.692,-0.085
8.694,-0.09
8.696,-0.085
8.698,-0.08
8.7,-0.075
8.702,-0.065
8.704,-0.06
8.706,-0.055
8.708,-0.055
8.71,-0.05
8.712,-0.05
8.714,-0.05
8.716,-0.045
8.718,-0.04
8.72,-0.035
8.722,-0.03
8.724,-0.025
8.726,-0.025
8.728,-0.03
8.73,-0.04
8.732,-0.05
8.734,-0.065
8.736,-0.075
8.738,-0.075
8.74,-0.07
8.742,-0.055
8.744,-0.035
8.746,-0.01
8.748,0.01
8.75,0.03
8.752,0.04
8.754,0.04
8.756,0.035
8.758,0.02
8.76,0.01
8.762,-0.005
8.764,-0.01
8.766,-0.005
8.768,0
8.77,0.01
8.772,0.02
8.774,0.025
8.776,0.025
8.778,0.025
8.78,0.015
8.782,0.01
8.784,0.005
8.786,0.005
8.788,0.01
8.79,0.02
8.792,0.03
8.794,0.035
8.796,0.04
8.798,0.035
8.8,0.025
8.802,0.015
8.804,0.005
8.806,-0.005
8.808,-0.005
8.81,0
8.812,0.015
8.814,0.025
8.816,0.04
8.818,0.045
8.82,0.05
8.822,0.045
8.824,0.035
8.826,0.025
8.828,0.015
8.83,0.01
8.832,0.01
8.834,0.01
8.836,0.015
8.838,0.02
8.84,0.025
8.842,0.02
8.844,0.01
8.846,-0.005
8.848,-0.025
8.85,-0.045
8.852,-0.06
8.854,-0.07
8.856,-0.075
8.858,-0.075
8.86,-0.075
8.862,-0.07
8.864,-0.07
8.866,-0.07
8.868,-0.08
8.87,-0.095
8.872,-0.115
8.874,-0.14
8.876,-0.165
8.878,-0.185
8.88,-0.205
8.882,-0.215
8.884,-0.215
8.886,-0.21
8.888,-0.2
8.89,-0.185
8.892,-0.175
8.894,-0.165
8.896,-0.16
8.898,-0.165
8.9,-0.18
8.902,-0.195
8.904,-0.21
8.906,-0.22
8.908,-0.23
8.91,-0.225
8.912,-0.22
8.914,-0.21
8.916,-0.195
8.918,-0.185
8.92,-0.185
8.922,-0.185
8.924,-0.19
8.926,-0.2
8.928,-0.205
8.93,-0.21
8.932,-0.205
8.934,-0.195
8.936,-0.185
8.938,-0.17
8.94,-0.16
8.942,-0.155
8.944,-0.155
8.946,-0.16
8.948,-0.165
8.95,-0.17
8.952,-0.175
8.954,-0.17
8.956,-0.16
8.958,-0.15
8.96,-0.14
8.962,-0.135
8.964,-0.135
8.966,-0.14
8.968,-0.155
8.97,-0.17
8.972,-0.185
8.974,-0.19
8.976,-0.195
8.978,-0.185
8.98,-0.175
8.982,-0.155
8.984,-0.14
8.986,-0.125
8.988,-0.115
8.99,-0.115
8.992,-0.12
8.994,-0.13
8.996,-0.14
8.998,-0.155
9,-0.16
9.002,-0.16
9.004,-0.16
9.006,-0.155
9.008,-0.145
9.01,-0.135
9.012,-0.13
9.014,-0.12
9.016,-0.11
9.018,-0.105
9.02,-0.105
9.022,-0.105
9.024,-0.105
9.026,-0.115
9.028,-0.125
9.03,-0.135
9.032,-0.14
9.034,-0.145
9.036,-0.145
9.038,-0.135
9.04,-0.125
9.042,-0.105
9.044,-0.09
9.046,-0.075
9.048,-0.07
9.05,-0.07
9.052,-0.085
9.054,-0.105
9.056,-0.125
9.058,-0.145
9.06,-0.16
9.062,-0.16
9.064,-0.155
9.066,-0.135
9.068,-0.115
9.07,-0.09
9.072,-0.07
9.074,-0.055
9.076,-0.05
9.078,-0.055
9.08,-0.065
9.082,-0.075
9.084,-0.085
9.086,-0.095
9.088,-0.1
9.09,-0.1
9.092,-0.1
9.094,-0.1
9.096,-0.1
9.098,-0.105
9.1,-0.11
9.102,-0.115
9.104,-0.115
9.106,-0.115
9.108,-0.11
9.11,-0.105
9.112,-0.095
9.114,-0.08
9.116,-0.07
9.118,-0.065
9.12,-0.065
9.122,-0.065
9.124,-0.07
9.126,-0.08
9.128,-0.085
9.13,-0.095
9.132,-0.095
9.134,-0.1
9.136,-0.095
9.138,-0.085
9.14,-0.075
9.142,-0.065
9.144,-0.05
9.146,-0.035
9.148,-0.02
9.15,-0.005
9.152,0.005
9.154,0.015
9.156,0.02
9.158,0.02
9.16,0.025
9.162,0.025
9.164,0.03
9.166,0.035
9.168,0.04
9.17,0.04
9.172,0.04
9.174,0.04
9.176,0.025
9.178,0.01
9.18,-0.01
9.182,-0.035
9.184,-0.055
9.186,-0.065
9.188,-0.07
9.19,-0.065
9.192,-0.055
9.194,-0.04
9.196,-0.03
9.198,-0.02
9.2,-0.025
9.202,-0.035
9.204,-0.05
9.206,-0.07
9.208,-0.09
9.21,-0.1
9.212,-0.1
9.214,-0.09
9.216,-0.075
9.218,-0.06
9.22,-0.045
9.222,-0.04
9.224,-0.04
9.226,-0.05
9.228,-0.065
9.23,-0.085
9.232,-0.105
9.234,-0.12
9.236,-0.135
9.238,-0.145
9.24,-0.155
9.242,-0.16
9.244,-0.165
9.246,-0.165
9.248,-0.155
9.25,-0.14
9.252,-0.105
9.254,-0.055
9.256,0.01
9.258,0.095
9.26,0.195
9.262,0.3
9.264,0.41
9.266,0.52
9.268,0.625
9.27,0.725
9.272,0.805
9.274,0.87
9.276,0.905
9.278,0.915
9.28,0.89
9.282,0.83
9.284,0.735
9.286,0.62
9.288,0.49
9.29,0.365
9.292,0.245
9.294,0.155
9.296,0.095
9.298,0.065
9.3,0.06
9.302,0.07
9.304,0.08
9.306,0.085
9.308,0.075
9.31,0.05
9.312,0.01
9.314,-0.04
9.316,-0.08
9.318,-0.11
9.32,-0.125
9.322,-0.12
9.324,-0.105
9.326,-0.08
9.328,-0.06
9.33,-0.045
9.332,-0.045
9.334,-0.055
9.336,-0.07
9.338,-0.09
9.34,-0.105
9.342,-0.11
9.344,-0.1
9.346,-0.085
9.348,-0.065
9.35,-0.045
9.352,-0.035
9.354,-0.035
9.356,-0.045
9.358,-0.065
9.36,-0.09
9.362,-0.11
9.364,-0.125
9.366,-0.125
9.368,-0.115
9.37,-0.09
9.372,-0.065
9.374,-0.045
9.376,-0.025
9.378,-0.02
9.38,-0.02
9.382,-0.035
9.384,-0.05
9.386,-0.07
9.388,-0.085
9.39,-0.095
9.392,-0.095
9.394,-0.085
9.396,-0.07
9.398,-0.055
9.4,-0.04
9.402,-0.025
9.404,-0.02
9.406,-0.015
9.408,-0.02
9.41,-0.02
9.412,-0.025
9.414,-0.025
9.416,-0.02
9.418,-0.01
9.42,0
9.422,0.01
9.424,0.02
9.426,0.02
9.428,0.02
9.43,0.015
9.432,0.005
9.434,-0.005
9.436,-0.015
9.438,-0.015
9.44,-0.01
9.442,0.005
9.444,0.03
9.446,0.055
9.448,0.075
9.45,0.095
9.452,0.11
9.454,0.11
9.456,0.105
9.458,0.095
9.46,0.085
9.462,0.075
9.464,0.075
9.466,0.085
9.468,0.1
9.47,0.115
9.472,0.135
9.474,0.145
9.476,0.15
9.478,0.15
9.48,0.14
9.482,0.125
9.484,0.115
9.486,0.115
9.488,0.12
9.49,0.135
9.492,0.16
9.494,0.185
9.496,0.215
9.498,0.24
9.5,0.26
9.502,0.265
9.504,0.26
9.506,0.25
9.508,0.235
9.51,0.22
9.512,0.21
9.514,0.2
9.516,0.2
9.518,0.2
9.52,0.205
9.522,0.21
9.524,0.21
9.526,0.205
9.528,0.195
9.53,0.18
9.532,0.165
9.534,0.145
9.536,0.125
9.538,0.11
9.54,0.1
9.542,0.095
9.544,0.095
9.546,0.09
9.548,0.09
9.55,0.085
9.552,0.075
9.554,0.06
9.556,0.045
9.558,0.03
9.56,0.02
9.562,0.01
9.564,0.005
9.566,0
9.568,0
9.57,0
9.572,0
9.574,-0.005
9.576,-0.015
9.578,-0.025
9.58,-0.035
9.582,-0.045
9.584,-0.05
9.586,-0.055
9.588,-0.05
9.59,-0.045
9.592,-0.04
9.594,-0.035
9.596,-0.03
9.598,-0.025
9.6,-0.02
9.602,-0.02
9.604,-0.025
9.606,-0.025
9.608,-0.03
9.61,-0.03
9.612,-0.03
9.614,-0.03
9.616,-0.035
9.618,-0.035
9.62,-0.035
9.622,-0.035
9.624,-0.035
9.626,-0.035
9.628,-0.035
9.63,-0.03
9.632,-0.03
9.634,-0.03
9.636,-0.025
9.638,-0.03
9.64,-0.03
9.642,-0.035
9.644,-0.035
9.646,-0.04
9.648,-0.04
9.65,-0.04
9.652,-0.04
9.654,-0.035
9.656,-0.035
9.658,-0.035
9.66,-0.035
9.662,-0.04
9.664,-0.045
9.666,-0.045
9.668,-0.045
9.67,-0.045
9.672,-0.04
9.674,-0.035
9.676,-0.03
9.678,-0.025
9.68,-0.025
9.682,-0.03
9.684,-0.04
9.686,-0.05
9.688,-0.06
9.69,-0.065
9.692,-0.07
9.694,-0.065
9.696,-0.06
9.698,-0.045
9.7,-0.035
9.702,-0.025
9.704,-0.015
9.706,-0.015
9.708,-0.015
9.71,-0.02
9.712,-0.03
9.714,-0.035
9.716,-0.04
9.718,-0.04
9.72,-0.04
9.722,-0.035
9.724,-0.035
9.726,-0.035
9.728,-0.035
9.73,-0.04
9.732,-0.045
9.734,-0.05
9.736,-0.055
9.738,-0.055
9.74,-0.06
9.742,-0.06
9.744,-0.055
9.746,-0.055
9.748,-0.05
9.75,-0.045
9.752,-0.04
9.754,-0.04
9.756,-0.035
9.758,-0.03
9.76,-0.025
9.762,-0.025
9.764,-0.02
9.766,-0.025
9.768,-0.025
9.77,-0.03
9.772,-0.035
9.774,-0.04
9.776,-0.045
9.778,-0.05
9.78,-0.055
9.782,-0.055
9.784,-0.055
9.786,-0.055
9.788,-0.05
9.79,-0.05
9.792,-0.05
9.794,-0.045
9.796,-0.045
9.798,-0.04
9.8,-0.04
9.802,-0.04
9.804,-0.045
9.806,-0.045
9.808,-0.05
9.81,-0.05
9.812,-0.045
9.814,-0.035
9.816,-0.02
9.818,-0.01
9.82,0.005
9.822,0.01
9.824,0.01
9.826,0.005
9.828,-0.005
9.83,-0.02
9.832,-0.03
9.834,-0.03
9.836,-0.025
9.838,-0.01
9.84,0.015
9.842,0.045
9.844,0.075
9.846,0.095
9.848,0.11
9.85,0.115
9.852,0.105
9.854,0.09
9.856,0.065
9.858,0.04
9.86,0.02
9.862,0.005
9.864,-0.01
9.866,-0.02
9.868,-0.035
9.87,-0.045
9.872,-0.055
9.874,-0.065
9.876,-0.07
9.878,-0.07
9.88,-0.07
9.882,-0.06
9.884,-0.05
9.886,-0.04
9.888,-0.03
9.89,-0.03
9.892,-0.03
9.894,-0.04
9.896,-0.05
9.898,-0.06
9.9,-0.07
9.902,-0.07
9.904,-0.07
9.906,-0.065
9.908,-0.06
9.91,-0.055
9.912,-0.055
9.914,-0.065
9.916,-0.08
9.918,-0.105
9.92,-0.13
9.922,-0.155
9.924,-0.175
9.926,-0.185
9.928,-0.185
9.93,-0.165
9.932,-0.125
9.934,-0.075
9.936,-0.005
9.938,0.075
9.94,0.165
9.942,0.265
9.944,0.365
9.946,0.47
9.948,0.575
9.95,0.67
9.952,0.765
9.954,0.84
9.956,0.895
9.958,0.92
9.96,0.915
9.962,0.87
9.964,0.795
9.966,0.695
9.968,0.57
9.97,0.445
9.972,0.32
9.974,0.21
9.976,0.13
9.978,0.07
9.98,0.04
9.982,0.03
9.984,0.03
9.986,0.035
9.988,0.03
9.99,0.02
9.992,0
9.994,-0.025
9.996,-0.055
9.998,-0.085
