0,-0.19
0.002,-0.085
0.004,-0.01
0.006,0.05
0.008,0.085
0.01,0.09
0.012,0.075
0.014,0.045
0.016,0.015
0.018,-0.01
0.02,-0.02
0.022,-0.015
0.024,-0.005
0.026,0.015
0.028,0.035
0.03,0.05
0.032,0.06
0.034,0.06
0.036,0.06
0.038,0.06
0.04,0.06
0.042,0.065
0.044,0.075
0.046,0.09
0.048,0.1
0.05,0.115
0.052,0.125
0.054,0.13
0.056,0.135
0.058,0.135
0.06,0.14
0.062,0.14
0.064,0.145
0.066,0.155
0.068,0.16
0.07,0.165
0.072,0.17
0.074,0.175
0.076,0.175
0.078,0.175
0.08,0.175
0.082,0.175
0.084,0.17
0.086,0.165
0.088,0.15
0.09,0.135
0.092,0.115
0.094,0.095
0.096,0.08
0.098,0.06
0.1,0.05
0.102,0.045
0.104,0.04
0.106,0.035
0.108,0.025
0.11,0.015
0.112,0
0.114,-0.02
0.116,-0.035
0.118,-0.05
0.12,-0.06
0.122,-0.06
0.124,-0.055
0.126,-0.04
0.128,-0.025
0.13,-0.015
0.132,-0.005
0.134,-0.005
0.136,-0.015
0.138,-0.03
0.14,-0.05
0.142,-0.06
0.144,-0.07
0.146,-0.065
0.148,-0.055
0.15,-0.04
0.152,-0.025
0.154,-0.015
0.156,-0.01
0.158,-0.015
0.16,-0.03
0.162,-0.05
0.164,-0.075
0.166,-0.09
0.168,-0.105
0.17,-0.11
0.172,-0.11
0.174,-0.1
0.176,-0.085
0.178,-0.07
0.18,-0.06
0.182,-0.045
0.184,-0.04
0.186,-0.03
0.188,-0.025
0.19,-0.02
0.192,-0.02
0.194,-0.02
0.196,-0.025
0.198,-0.03
0.2,-0.03
0.202,-0.035
0.204,-0.035
0.206,-0.035
0.208,-0.03
0.21,-0.02
0.212,-0.015
0.214,-0.01
0.216,-0.005
0.218,-0.01
0.22,-0.02
0.222,-0.03
0.224,-0.045
0.226,-0.055
0.228,-0.065
0.23,-0.07
0.232,-0.07
0.234,-0.065
0.236,-0.06
0.238,-0.06
0.24,-0.055
0.242,-0.05
0.244,-0.05
0.246,-0.045
0.248,-0.04
0.25,-0.035
0.252,-0.025
0.254,-0.015
0.256,-0.01
0.258,-0.005
0.26,0
0.262,0
0.264,-0.005
0.266,-0.005
0.268,-0.01
0.27,-0.005
0.272,0
0.274,0
0.276,0.005
0.278,0.005
0.28,-0.005
0.282,-0.02
0.284,-0.035
0.286,-0.055
0.288,-0.075
0.29,-0.085
0.292,-0.085
0.294,-0.08
0.296,-0.07
0.298,-0.055
0.3,-0.04
0.302,-0.03
0.304,-0.03
0.306,-0.04
0.308,-0.06
0.31,-0.08
0.312,-0.1
0.314,-0.115
0.316,-0.12
0.318,-0.115
0.32,-0.1
0.322,-0.08
0.324,-0.055
0.326,-0.035
0.328,-0.02
0.33,-0.015
0.332,-0.02
0.334,-0.03
0.336,-0.05
0.338,-0.07
0.34,-0.09
0.342,-0.1
0.344,-0.1
0.346,-0.08
0.348,-0.045
0.35,0.005
0.352,0.07
0.354,0.135
0.356,0.195
0.358,0.245
0.36,0.27
0.362,0.265
0.364,0.24
0.366,0.185
0.368,0.11
0.37,0.03
0.372,-0.055
0.374,-0.13
0.376,-0.185
0.378,-0.225
0.38,-0.245
0.382,-0.25
0.384,-0.24
0.386,-0.225
0.388,-0.2
0.39,-0.175
0.392,-0.155
0.394,-0.135
0.396,-0.12
0.398,-0.105
0.4,-0.1
0.402,-0.095
0.404,-0.1
0.406,-0.1
0.408,-0.105
0.41,-0.11
0.412,-0.11
0.414,-0.11
0.416,-0.105
0.418,-0.095
0.42,-0.085
0.422,-0.075
0.424,-0.07
0.426,-0.07
0.428,-0.07
0.43,-0.07
0.432,-0.075
0.434,-0.07
0.436,-0.07
0.438,-0.06
0.44,-0.055
0.442,-0.045
0.444,-0.04
0.446,-0.035
0.448,-0.04
0.45,-0.045
0.452,-0.055
0.454,-0.065
0.456,-0.07
0.458,-0.075
0.46,-0.075
0.462,-0.065
0.464,-0.055
0.466,-0.045
0.468,-0.03
0.47,-0.025
0.472,-0.02
0.474,-0.02
0.476,-0.025
0.478,-0.03
0.48,-0.035
0.482,-0.04
0.484,-0.04
0.486,-0.04
0.488,-0.035
0.49,-0.035
0.492,-0.03
0.494,-0.025
0.496,-0.02
0.498,-0.01
0.5,0
0.502,0.015
0.504,0.03
0.506,0.045
0.508,0.065
0.51,0.08
0.512,0.085
0.514,0.09
0.516,0.085
0.518,0.08
0.52,0.075
0.522,0.07
0.524,0.075
0.526,0.085
0.528,0.1
0.53,0.125
0.532,0.15
0.534,0.17
0.536,0.185
0.538,0.19
0.54,0.185
0.542,0.17
0.544,0.155
0.546,0.14
0.548,0.135
0.55,0.135
0.552,0.14
0.554,0.155
0.556,0.17
0.558,0.18
0.56,0.185
0.562,0.185
0.564,0.17
0.566,0.15
0.568,0.125
0.57,0.105
0.572,0.09
0.574,0.075
0.576,0.075
0.578,0.07
0.58,0.07
0.582,0.07
0.584,0.065
0.586,0.05
0.588,0.035
0.59,0.02
0.592,0.01
0.594,0
0.596,-0.005
0.598,-0.01
0.6,-0.01
0.602,-0.01
0.604,-0.015
0.606,-0.02
0.608,-0.035
0.61,-0.05
0.612,-0.06
0.614,-0.07
0.616,-0.075
0.618,-0.075
0.62,-0.065
0.622,-0.055
0.624,-0.045
0.626,-0.035
0.628,-0.03
0.63,-0.03
0.632,-0.03
0.634,-0.03
0.636,-0.03
0.638,-0.03
0.64,-0.025
0.642,-0.015
0.644,-0.005
0.646,0
0.648,0.005
0.65,0.005
0.652,0
0.654,-0.005
0.656,-0.01
0.658,-0.01
0.66,-0.015
0.662,-0.01
0.664,-0.01
0.666,-0.005
0.668,-0.005
0.67,-0.01
0.672,-0.015
0.674,-0.02
0.676,-0.03
0.678,-0.035
0.68,-0.04
0.682,-0.04
0.684,-0.03
0.686,-0.02
0.688,-0.01
0.69,0.005
0.692,0.015
0.694,0.025
0.696,0.03
0.698,0.03
0.7,0.025
0.702,0.015
0.704,0.005
0.706,0
0.708,-0.01
0.71,-0.015
0.712,-0.02
0.714,-0.025
0.716,-0.025
0.718,-0.025
0.72,-0.02
0.722,-0.01
0.724,0
0.726,0.01
0.728,0.025
0.73,0.04
0.732,0.055
0.734,0.06
0.736,0.065
0.738,0.06
0.74,0.045
0.742,0.03
0.744,0.015
0.746,-0.005
0.748,-0.015
0.75,-0.025
0.752,-0.025
0.754,-0.02
0.756,-0.015
0.758,-0.005
0.76,-0.005
0.762,-0.005
0.764,-0.01
0.766,-0.02
0.768,-0.035
0.77,-0.045
0.772,-0.055
0.774,-0.06
0.776,-0.06
0.778,-0.055
0.78,-0.05
0.782,-0.04
0.784,-0.035
0.786,-0.035
0.788,-0.03
0.79,-0.035
0.792,-0.04
0.794,-0.04
0.796,-0.045
0.798,-0.045
0.8,-0.045
0.802,-0.04
0.804,-0.035
0.806,-0.025
0.808,-0.015
0.81,0.005
0.812,0.035
0.814,0.075
0.816,0.125
0.818,0.18
0.82,0.235
0.822,0.285
0.824,0.32
0.826,0.33
0.828,0.315
0.83,0.27
0.832,0.2
0.834,0.115
0.836,0.02
0.838,-0.07
0.84,-0.145
0.842,-0.195
0.844,-0.22
0.846,-0.22
0.848,-0.205
0.85,-0.17
0.852,-0.14
0.854,-0.11
0.856,-0.085
0.858,-0.075
0.86,-0.075
0.862,-0.085
0.864,-0.09
0.866,-0.095
0.868,-0.1
0.87,-0.095
0.872,-0.085
0.874,-0.075
0.876,-0.06
0.878,-0.05
0.88,-0.04
0.882,-0.03
0.884,-0.025
0.886,-0.015
0.888,-0.015
0.89,-0.01
0.892,-0.01
0.894,-0.01
0.896,-0.01
0.898,-0.015
0.9,-0.02
0.902,-0.03
0.904,-0.035
0.906,-0.035
0.908,-0.04
0.91,-0.04
0.912,-0.04
0.914,-0.04
0.916,-0.035
0.918,-0.03
0.92,-0.02
0.922,-0.01
0.924,0
0.926,0.01
0.928,0.015
0.93,0.02
0.932,0.02
0.934,0.015
0.936,0.01
0.938,-0.005
0.94,-0.015
0.942,-0.02
0.944,-0.025
0.946,-0.02
0.948,-0.01
0.95,0.005
0.952,0.015
0.954,0.025
0.956,0.025
0.958,0.025
0.96,0.02
0.962,0.02
0.964,0.02
0.966,0.025
0.968,0.04
0.97,0.06
0.972,0.085
0.974,0.105
0.976,0.12
0.978,0.125
0.98,0.125
0.982,0.12
0.984,0.115
0.986,0.11
0.988,0.115
0.99,0.125
0.992,0.145
0.994,0.165
0.996,0.185
0.998,0.2
1,0.21
1.002,0.21
1.004,0.21
1.006,0.21
1.008,0.21
1.01,0.215
1.012,0.22
1.014,0.23
1.016,0.235
1.018,0.235
1.02,0.23
1.022,0.215
1.024,0.195
1.026,0.17
1.028,0.155
1.03,0.14
1.032,0.13
1.034,0.13
1.036,0.13
1.038,0.13
1.04,0.13
1.042,0.12
1.044,0.105
1.046,0.09
1.048,0.075
1.05,0.055
1.052,0.045
1.054,0.04
1.056,0.035
1.058,0.035
1.06,0.035
1.062,0.03
1.064,0.02
1.066,0.005
1.068,-0.01
1.07,-0.03
1.072,-0.045
1.074,-0.06
1.076,-0.065
1.078,-0.065
1.08,-0.055
1.082,-0.045
1.084,-0.03
1.086,-0.02
1.088,-0.01
1.09,-0.005
1.092,-0.005
1.094,-0.005
1.096,-0.01
1.098,-0.015
1.1,-0.015
1.102,-0.02
1.104,-0.02
1.106,-0.02
1.108,-0.02
1.11,-0.02
1.112,-0.025
1.114,-0.03
1.116,-0.035
1.118,-0.04
1.12,-0.04
1.122,-0.04
1.124,-0.035
1.126,-0.03
1.128,-0.02
1.13,-0.01
1.132,-0.005
1.134,-0.005
1.136,-0.01
1.138,-0.015
1.14,-0.025
1.142,-0.035
1.144,-0.035
1.146,-0.035
1.148,-0.03
1.15,-0.015
1.152,-0.005
1.154,0.005
1.156,0.015
1.158,0.015
1.16,0.005
1.162,-0.005
1.164,-0.02
1.166,-0.03
1.168,-0.035
1.17,-0.035
1.172,-0.03
1.174,-0.015
1.176,0
1.178,0.01
1.18,0.025
1.182,0.03
1.184,0.03
1.186,0.025
1.188,0.02
1.19,0.015
1.192,0.01
1.194,0.01
1.196,0.01
1.198,0.01
1.2,0.01
1.202,0.005
1.204,0
1.206,-0.01
1.208,-0.025
1.21,-0.035
1.212,-0.04
1.214,-0.04
1.216,-0.04
1.218,-0.035
1.22,-0.03
1.222,-0.025
1.224,-0.025
1.226,-0.025
1.228,-0.035
1.23,-0.045
1.232,-0.055
1.234,-0.065
1.236,-0.07
1.238,-0.075
1.24,-0.07
1.242,-0.065
1.244,-0.05
1.246,-0.04
1.248,-0.03
1.25,-0.025
1.252,-0.02
1.254,-0.02
1.256,-0.03
1.258,-0.04
1.26,-0.05
1.262,-0.06
1.264,-0.07
1.266,-0.075
1.268,-0.07
1.27,-0.055
1.272,-0.025
1.274,0.02
1.276,0.07
1.278,0.13
1.28,0.19
1.282,0.245
1.284,0.28
1.286,0.3
1.288,0.29
1.29,0.255
1.292,0.2
1.294,0.12
1.296,0.035
1.298,-0.05
1.3,-0.12
1.302,-0.175
1.304,-0.205
1.306,-0.215
1.308,-0.205
1.31,-0.18
1.312,-0.15
1.314,-0.12
1.316,-0.095
1.318,-0.08
1.32,-0.07
1.322,-0.07
1.324,-0.07
1.326,-0.07
1.328,-0.07
1.33,-0.065
1.332,-0.06
1.334,-0.055
1.336,-0.055
1.338,-0.055
1.34,-0.06
1.342,-0.065
1.344,-0.07
1.346,-0.075
1.348,-0.075
1.35,-0.07
1.352,-0.06
1.354,-0.055
1.356,-0.045
1.358,-0.04
1.36,-0.04
1.362,-0.04
1.364,-0.05
1.366,-0.055
1.368,-0.065
1.37,-0.065
1.372,-0.065
1.374,-0.055
1.376,-0.045
1.378,-0.03
1.38,-0.015
1.382,-0.005
1.384,0.005
1.386,0.01
1.388,0.01
1.39,0.005
1.392,0.005
1.394,0
1.396,0
1.398,0
1.4,0.005
1.402,0.005
1.404,0.005
1.406,0.005
1.408,0
1.41,-0.01
1.412,-0.02
1.414,-0.03
1.416,-0.04
1.418,-0.04
1.42,-0.04
1.422,-0.025
1.424,-0.01
1.426,0.01
1.428,0.035
1.43,0.06
1.432,0.08
1.434,0.095
1.436,0.1
1.438,0.105
1.44,0.1
1.442,0.095
1.444,0.09
1.446,0.09
1.448,0.09
1.45,0.095
1.452,0.11
1.454,0.125
1.456,0.145
1.458,0.16
1.46,0.18
1.462,0.195
1.464,0.205
1.466,0.21
1.468,0.215
1.47,0.215
1.472,0.21
1.474,0.205
1.476,0.2
1.478,0.195
1.48,0.19
1.482,0.185
1.484,0.18
1.486,0.17
1.488,0.16
1.49,0.145
1.492,0.13
1.494,0.11
1.496,0.09
1.498,0.07
1.5,0.055
1.502,0.04
1.504,0.03
1.506,0.02
1.508,0.015
1.51,0.01
1.512,0.005
1.514,0
1.516,-0.005
1.518,-0.015
1.52,-0.02
1.522,-0.03
1.524,-0.035
1.526,-0.04
1.528,-0.045
1.53,-0.05
1.532,-0.05
1.534,-0.055
1.536,-0.055
1.538,-0.06
1.54,-0.06
1.542,-0.065
1.544,-0.065
1.546,-0.065
1.548,-0.07
1.55,-0.065
1.552,-0.065
1.554,-0.06
1.556,-0.06
1.558,-0.055
1.56,-0.05
1.562,-0.045
1.564,-0.04
1.566,-0.04
1.568,-0.04
1.57,-0.05
1.572,-0.06
1.574,-0.07
1.576,-0.08
1.578,-0.09
1.58,-0.09
1.582,-0.09
1.584,-0.085
1.586,-0.07
1.588,-0.06
1.59,-0.045
1.592,-0.04
1.594,-0.035
1.596,-0.04
1.598,-0.05
1.6,-0.065
1.602,-0.075
1.604,-0.085
1.606,-0.09
1.608,-0.09
1.61,-0.08
1.612,-0.07
1.614,-0.06
1.616,-0.045
1.618,-0.035
1.62,-0.035
1.622,-0.035
1.624,-0.04
1.626,-0.05
1.628,-0.06
1.63,-0.075
1.632,-0.085
1.634,-0.095
1.636,-0.095
1.638,-0.095
1.64,-0.085
1.642,-0.07
1.644,-0.05
1.646,-0.035
1.648,-0.02
1.65,-0.01
1.652,-0.01
1.654,-0.015
1.656,-0.025
1.658,-0.035
1.66,-0.045
1.662,-0.055
1.664,-0.055
1.666,-0.055
1.668,-0.05
1.67,-0.045
1.672,-0.045
1.674,-0.05
1.676,-0.06
1.678,-0.075
1.68,-0.095
1.682,-0.115
1.684,-0.125
1.686,-0.125
1.688,-0.12
1.69,-0.105
1.692,-0.09
1.694,-0.075
1.696,-0.065
1.698,-0.065
1.7,-0.07
1.702,-0.075
1.704,-0.09
1.706,-0.095
1.708,-0.1
1.71,-0.105
1.712,-0.1
1.714,-0.1
1.716,-0.1
1.718,-0.1
1.72,-0.11
1.722,-0.115
1.724,-0.125
1.726,-0.125
1.728,-0.12
1.73,-0.095
1.732,-0.055
1.734,-0.005
1.736,0.06
1.738,0.125
1.74,0.19
1.742,0.24
1.744,0.275
1.746,0.285
1.748,0.27
1.75,0.225
1.752,0.16
1.754,0.08
1.756,-0.015
1.758,-0.105
1.76,-0.185
1.762,-0.25
1.764,-0.295
1.766,-0.31
1.768,-0.3
1.77,-0.27
1.772,-0.23
1.774,-0.185
1.776,-0.14
1.778,-0.11
1.78,-0.09
1.782,-0.085
1.784,-0.09
1.786,-0.105
1.788,-0.115
1.79,-0.125
1.792,-0.13
1.794,-0.125
1.796,-0.115
1.798,-0.1
1.8,-0.085
1.802,-0.075
1.804,-0.065
1.806,-0.06
1.808,-0.06
1.81,-0.065
1.812,-0.07
1.814,-0.075
1.816,-0.08
1.818,-0.085
1.82,-0.085
1.822,-0.085
1.824,-0.085
1.826,-0.08
1.828,-0.07
1.83,-0.065
1.832,-0.055
1.834,-0.05
1.836,-0.045
1.838,-0.05
1.84,-0.05
1.842,-0.055
1.844,-0.065
1.846,-0.065
1.848,-0.065
1.85,-0.06
1.852,-0.05
1.854,-0.035
1.856,-0.02
1.858,-0.005
1.86,0
1.862,0
1.864,-0.005
1.866,-0.015
1.868,-0.025
1.87,-0.04
1.872,-0.05
1.874,-0.055
1.876,-0.055
1.878,-0.045
1.88,-0.035
1.882,-0.02
1.884,0
1.886,0.015
1.888,0.03
1.89,0.04
1.892,0.05
1.894,0.06
1.896,0.065
1.898,0.07
1.9,0.07
1.902,0.075
1.904,0.085
1.906,0.095
1.908,0.11
1.91,0.13
1.912,0.155
1.914,0.175
1.916,0.195
1.918,0.205
1.92,0.21
1.922,0.205
1.924,0.195
1.926,0.18
1.928,0.16
1.93,0.15
1.932,0.145
1.934,0.15
1.936,0.16
1.938,0.18
1.94,0.195
1.942,0.21
1.944,0.215
1.946,0.205
1.948,0.19
1.95,0.16
1.952,0.125
1.954,0.09
1.956,0.055
1.958,0.03
1.96,0.015
1.962,0.01
1.964,0.01
1.966,0.01
1.968,0.015
1.97,0.015
1.972,0.015
1.974,0.01
1.976,0
1.978,-0.01
1.98,-0.015
1.982,-0.02
1.984,-0.02
1.986,-0.015
1.988,-0.015
1.99,-0.01
1.992,-0.01
1.994,-0.01
1.996,-0.015
1.998,-0.025
2,-0.035
2.002,-0.045
2.004,-0.055
2.006,-0.065
2.008,-0.065
2.01,-0.065
2.012,-0.065
2.014,-0.06
2.016,-0.055
2.018,-0.055
2.02,-0.05
2.022,-0.05
2.024,-0.05
2.026,-0.05
2.028,-0.05
2.03,-0.05
2.032,-0.05
2.034,-0.05
2.036,-0.045
2.038,-0.035
2.04,-0.03
2.042,-0.02
2.044,-0.015
2.046,-0.01
2.048,-0.01
2.05,-0.015
2.052,-0.02
2.054,-0.025
2.056,-0.03
2.058,-0.035
2.06,-0.035
2.062,-0.035
2.064,-0.035
2.066,-0.03
2.068,-0.025
2.07,-0.025
2.072,-0.02
2.074,-0.02
2.076,-0.02
2.078,-0.02
2.08,-0.02
2.082,-0.015
2.084,-0.015
2.086,-0.01
2.088,-0.01
2.09,-0.005
2.092,-0.005
2.094,-0.005
2.096,-0.005
2.098,-0.005
2.1,-0.005
2.102,-0.005
2.104,-0.005
2.106,0
2.108,0.005
2.11,0.015
2.112,0.02
2.114,0.025
2.116,0.025
2.118,0.02
2.12,0.015
2.122,0.01
2.124,-0.005
2.126,-0.015
2.128,-0.025
2.13,-0.035
2.132,-0.045
2.134,-0.045
2.136,-0.04
2.138,-0.035
2.14,-0.025
2.142,-0.02
2.144,-0.01
2.146,-0.01
2.148,-0.015
2.15,-0.025
2.152,-0.035
2.154,-0.05
2.156,-0.06
2.158,-0.065
2.16,-0.06
2.162,-0.05
2.164,-0.035
2.166,-0.02
2.168,-0.01
2.17,-0.005
2.172,-0.015
2.174,-0.03
2.176,-0.05
2.178,-0.07
2.18,-0.085
2.182,-0.08
2.184,-0.055
2.186,-0.01
2.188,0.055
2.19,0.13
2.192,0.21
2.194,0.285
2.196,0.345
2.198,0.375
2.2,0.38
2.202,0.35
2.204,0.29
2.206,0.205
2.208,0.105
2.21,0.005
2.212,-0.09
2.214,-0.17
2.216,-0.225
2.218,-0.255
2.22,-0.265
2.222,-0.25
2.224,-0.225
2.226,-0.19
2.228,-0.16
2.23,-0.135
2.232,-0.115
2.234,-0.1
2.236,-0.09
2.238,-0.085
2.24,-0.075
2.242,-0.065
2.244,-0.045
2.246,-0.03
2.248,-0.015
2.25,-0.005
2.252,-0.005
2.254,-0.015
2.256,-0.03
2.258,-0.05
2.26,-0.07
2.262,-0.085
2.264,-0.09
2.266,-0.09
2.268,-0.08
2.27,-0.065
2.272,-0.05
2.274,-0.035
2.276,-0.02
2.278,-0.01
2.28,-0.005
2.282,-0.005
2.284,-0.01
2.286,-0.015
2.288,-0.015
2.29,-0.015
2.292,-0.02
2.294,-0.02
2.296,-0.025
2.298,-0.025
2.3,-0.03
2.302,-0.035
2.304,-0.04
2.306,-0.045
2.308,-0.045
2.31,-0.045
2.312,-0.04
2.314,-0.04
2.316,-0.03
2.318,-0.025
2.32,-0.02
2.322,-0.01
2.324,-0.005
2.326,0
2.328,0
2.33,0.005
2.332,0.005
2.334,0.005
2.336,0.005
2.338,0.005
2.34,0.01
2.342,0.02
2.344,0.035
2.346,0.05
2.348,0.065
2.35,0.08
2.352,0.095
2.354,0.11
2.356,0.125
2.358,0.135
2.36,0.145
2.362,0.15
2.364,0.16
2.366,0.165
2.368,0.17
2.37,0.17
2.372,0.17
2.374,0.17
2.376,0.17
2.378,0.17
2.38,0.18
2.382,0.19
2.384,0.205
2.386,0.22
2.388,0.23
2.39,0.24
2.392,0.245
2.394,0.24
2.396,0.23
2.398,0.22
2.4,0.2
2.402,0.185
2.404,0.175
2.406,0.165
2.408,0.15
2.41,0.14
2.412,0.125
2.414,0.105
2.416,0.08
2.418,0.055
2.42,0.025
2.422,0.005
2.424,-0.01
2.426,-0.02
2.428,-0.015
2.43,-0.01
2.432,0
2.434,0.005
2.436,0.005
2.438,0
2.44,-0.01
2.442,-0.025
2.444,-0.04
2.446,-0.055
2.448,-0.06
2.45,-0.06
2.452,-0.055
2.454,-0.045
2.456,-0.035
2.458,-0.025
2.46,-0.025
2.462,-0.025
2.464,-0.035
2.466,-0.04
2.468,-0.05
2.47,-0.06
2.472,-0.06
2.474,-0.06
2.476,-0.055
2.478,-0.045
2.48,-0.035
2.482,-0.03
2.484,-0.02
2.486,-0.015
2.488,-0.015
2.49,-0.01
2.492,-0.015
2.494,-0.015
2.496,-0.025
2.498,-0.035
2.5,-0.05
2.502,-0.065
2.504,-0.08
2.506,-0.085
2.508,-0.09
2.51,-0.085
2.512,-0.07
2.514,-0.05
2.516,-0.03
2.518,-0.01
2.52,0.005
2.522,0.01
2.524,0.005
2.526,-0.01
2.528,-0.025
2.53,-0.04
2.532,-0.05
2.534,-0.05
2.536,-0.04
2.538,-0.02
2.54,0
2.542,0.025
2.544,0.045
2.546,0.05
2.548,0.055
2.55,0.045
2.552,0.035
2.554,0.025
2.556,0.015
2.558,0.015
2.56,0.01
2.562,0.01
2.564,0.015
2.566,0.01
2.568,0.005
2.57,0
2.572,-0.01
2.574,-0.02
2.576,-0.025
2.578,-0.035
2.58,-0.035
2.582,-0.04
2.584,-0.045
2.586,-0.055
2.588,-0.065
2.59,-0.075
2.592,-0.08
2.594,-0.085
2.596,-0.08
2.598,-0.07
2.6,-0.055
2.602,-0.04
2.604,-0.025
2.606,-0.02
2.608,-0.02
2.61,-0.025
2.612,-0.035
2.614,-0.045
2.616,-0.06
2.618,-0.065
2.62,-0.065
2.622,-0.06
2.624,-0.05
2.626,-0.04
2.628,-0.035
2.63,-0.03
2.632,-0.03
2.634,-0.02
2.636,-0.005
2.638,0.025
2.64,0.065
2.642,0.115
2.644,0.175
2.646,0.235
2.648,0.28
2.65,0.31
2.652,0.31
2.654,0.285
2.656,0.23
2.658,0.16
2.66,0.075
2.662,-0.015
2.664,-0.095
2.666,-0.155
2.668,-0.195
2.67,-0.21
2.672,-0.2
2.674,-0.18
2.676,-0.145
2.678,-0.115
2.68,-0.085
2.682,-0.07
2.684,-0.065
2.686,-0.065
2.688,-0.075
2.69,-0.085
2.692,-0.095
2.694,-0.095
2.696,-0.095
2.698,-0.085
2.7,-0.075
2.702,-0.06
2.704,-0.055
2.706,-0.05
2.708,-0.05
2.71,-0.05
2.712,-0.05
2.714,-0.05
2.716,-0.045
2.718,-0.035
2.72,-0.025
2.722,-0.01
2.724,-0.005
2.726,0
2.728,-0.005
2.73,-0.01
2.732,-0.02
2.734,-0.03
2.736,-0.04
2.738,-0.045
2.74,-0.045
2.742,-0.045
2.744,-0.045
2.746,-0.04
2.748,-0.04
2.75,-0.04
2.752,-0.04
2.754,-0.035
2.756,-0.03
2.758,-0.02
2.76,-0.01
2.762,0
2.764,0.01
2.766,0.02
2.768,0.025
2.77,0.025
2.772,0.025
2.774,0.02
2.776,0.015
2.778,0.01
2.78,0.01
2.782,0.005
2.784,0.005
2.786,0.005
2.788,0.01
2.79,0.015
2.792,0.025
2.794,0.035
2.796,0.05
2.798,0.065
2.8,0.08
2.802,0.09
2.804,0.1
2.806,0.105
2.808,0.11
2.81,0.115
2.812,0.115
2.814,0.125
2.816,0.13
2.818,0.145
2.82,0.155
2.822,0.17
2.824,0.18
2.826,0.185
2.828,0.185
2.83,0.185
2.832,0.18
2.834,0.175
2.836,0.175
2.838,0.175
2.84,0.18
2.842,0.19
2.844,0.2
2.846,0.21
2.848,0.215
2.85,0.22
2.852,0.215
2.854,0.205
2.856,0.195
2.858,0.18
2.86,0.16
2.862,0.14
2.864,0.115
2.866,0.095
2.868,0.075
2.87,0.06
2.872,0.045
2.874,0.03
2.876,0.02
2.878,0.015
2.88,0.01
2.882,0.005
2.884,-0.005
2.886,-0.01
2.888,-0.02
2.89,-0.03
2.892,-0.04
2.894,-0.05
2.896,-0.055
2.898,-0.055
2.9,-0.05
2.902,-0.045
2.904,-0.04
2.906,-0.03
2.908,-0.03
2.91,-0.025
2.912,-0.03
2.914,-0.035
2.916,-0.045
2.918,-0.05
2.92,-0.055
2.922,-0.06
2.924,-0.055
2.926,-0.05
2.928,-0.04
2.93,-0.03
2.932,-0.025
2.934,-0.025
2.936,-0.03
2.938,-0.04
2.94,-0.05
2.942,-0.06
2.944,-0.07
2.946,-0.075
2.948,-0.075
2.95,-0.065
2.952,-0.05
2.954,-0.035
2.956,-0.02
2.958,-0.01
2.96,-0.005
2.962,-0.005
2.964,-0.005
2.966,-0.01
2.968,-0.015
2.97,-0.015
2.972,-0.015
2.974,-0.015
2.976,-0.015
2.978,-0.02
2.98,-0.02
2.982,-0.03
2.984,-0.04
2.986,-0.045
2.988,-0.045
2.99,-0.04
2.992,-0.03
2.994,-0.01
2.996,0.005
2.998,0.025
3,0.035
3.002,0.04
3.004,0.035
3.006,0.025
3.008,0.01
3.01,0
3.012,-0.005
3.014,-0.005
3.016,0
3.018,0.005
3.02,0.01
3.022,0.005
3.024,-0.005
3.026,-0.02
3.028,-0.045
3.03,-0.065
3.032,-0.08
3.034,-0.085
3.036,-0.08
3.038,-0.07
3.04,-0.05
3.042,-0.03
3.044,-0.02
3.046,-0.015
3.048,-0.02
3.05,-0.035
3.052,-0.05
3.054,-0.07
3.056,-0.08
3.058,-0.08
3.06,-0.075
3.062,-0.06
3.064,-0.045
3.066,-0.03
3.068,-0.015
3.07,-0.01
3.072,-0.01
3.074,-0.015
3.076,-0.02
3.078,-0.03
3.08,-0.035
3.082,-0.035
3.084,-0.035
3.086,-0.025
3.088,-0.005
3.09,0.02
3.092,0.055
3.094,0.09
3.096,0.13
3.098,0.165
3.1,0.19
3.102,0.2
3.104,0.195
3.106,0.165
3.108,0.115
3.11,0.055
3.112,-0.015
3.114,-0.085
3.116,-0.145
3.118,-0.185
3.12,-0.205
3.122,-0.21
3.124,-0.195
3.126,-0.17
3.128,-0.145
3.13,-0.12
3.132,-0.105
3.134,-0.09
3.136,-0.085
3.138,-0.08
3.14,-0.08
3.142,-0.07
3.144,-0.065
3.146,-0.055
3.148,-0.05
3.15,-0.045
3.152,-0.045
3.154,-0.055
3.156,-0.06
3.158,-0.07
3.16,-0.075
3.162,-0.075
3.164,-0.07
3.166,-0.055
3.168,-0.04
3.17,-0.025
3.172,-0.01
3.174,-0.005
3.176,-0.005
3.178,-0.01
3.18,-0.015
3.182,-0.025
3.184,-0.03
3.186,-0.035
3.188,-0.03
3.19,-0.03
3.192,-0.02
3.194,-0.02
3.196,-0.015
3.198,-0.015
3.2,-0.02
3.202,-0.03
3.204,-0.035
3.206,-0.045
3.208,-0.045
3.21,-0.045
3.212,-0.04
3.214,-0.035
3.216,-0.02
3.218,-0.005
3.22,0.005
3.222,0.02
3.224,0.03
3.226,0.04
3.228,0.045
3.23,0.05
3.232,0.05
3.234,0.05
3.236,0.05
3.238,0.045
3.24,0.04
3.242,0.04
3.244,0.035
3.246,0.035
3.248,0.04
3.25,0.045
3.252,0.055
3.254,0.07
3.256,0.09
3.258,0.11
3.26,0.125
3.262,0.145
3.264,0.155
3.266,0.165
3.268,0.165
3.27,0.165
3.272,0.16
3.274,0.16
3.276,0.155
3.278,0.155
3.28,0.16
3.282,0.165
3.284,0.17
3.286,0.175
3.288,0.18
3.29,0.185
3.292,0.185
3.294,0.185
3.296,0.18
3.298,0.175
3.3,0.17
3.302,0.16
3.304,0.155
3.306,0.14
3.308,0.125
3.31,0.11
3.312,0.09
3.314,0.075
3.316,0.055
3.318,0.045
3.32,0.035
3.322,0.03
3.324,0.025
3.326,0.03
3.328,0.03
3.33,0.03
3.332,0.025
3.334,0.02
3.336,0.01
3.338,-0.005
3.34,-0.015
3.342,-0.025
3.344,-0.035
3.346,-0.035
3.348,-0.035
3.35,-0.035
3.352,-0.03
3.354,-0.02
3.356,-0.02
3.358,-0.015
3.36,-0.02
3.362,-0.02
3.364,-0.03
3.366,-0.035
3.368,-0.045
3.37,-0.055
3.372,-0.06
3.374,-0.07
3.376,-0.075
3.378,-0.08
3.38,-0.085
3.382,-0.09
3.384,-0.09
3.386,-0.085
3.388,-0.08
3.39,-0.07
3.392,-0.06
3.394,-0.045
3.396,-0.035
3.398,-0.03
3.4,-0.025
3.402,-0.02
3.404,-0.02
3.406,-0.025
3.408,-0.03
3.41,-0.035
3.412,-0.04
3.414,-0.04
3.416,-0.045
3.418,-0.045
3.42,-0.05
3.422,-0.045
3.424,-0.045
3.426,-0.04
3.428,-0.03
3.43,-0.025
3.432,-0.015
3.434,-0.01
3.436,0
3.438,0
3.44,-0.005
3.442,-0.01
3.444,-0.025
3.446,-0.035
3.448,-0.045
3.45,-0.05
3.452,-0.05
3.454,-0.045
3.456,-0.03
3.458,-0.015
3.46,0
3.462,0.015
3.464,0.02
3.466,0.02
3.468,0.01
3.47,0
3.472,-0.015
3.474,-0.025
3.476,-0.03
3.478,-0.035
3.48,-0.03
3.482,-0.03
3.484,-0.025
3.486,-0.03
3.488,-0.035
3.49,-0.04
3.492,-0.05
3.494,-0.06
3.496,-0.065
3.498,-0.065
3.5,-0.065
3.502,-0.06
3.504,-0.06
3.506,-0.055
3.508,-0.055
3.51,-0.06
3.512,-0.065
3.514,-0.065
3.516,-0.065
3.518,-0.055
3.52,-0.045
3.522,-0.03
3.524,-0.02
3.526,-0.01
3.528,-0.01
3.53,-0.015
3.532,-0.025
3.534,-0.035
3.536,-0.04
3.538,-0.035
3.54,-0.02
3.542,0.005
3.544,0.035
3.546,0.07
3.548,0.095
3.55,0.11
3.552,0.105
3.554,0.085
3.556,0.05
3.558,0.005
3.56,-0.045
3.562,-0.085
3.564,-0.12
3.566,-0.14
3.568,-0.145
3.57,-0.145
3.572,-0.14
3.574,-0.13
3.576,-0.125
3.578,-0.12
3.58,-0.115
3.582,-0.11
3.584,-0.11
3.586,-0.1
3.588,-0.09
3.59,-0.08
3.592,-0.065
3.594,-0.05
3.596,-0.04
3.598,-0.035
3.6,-0.035
3.602,-0.035
3.604,-0.04
3.606,-0.045
3.608,-0.045
3.61,-0.05
3.612,-0.045
3.614,-0.045
3.616,-0.04
3.618,-0.04
3.62,-0.04
3.622,-0.045
3.624,-0.045
3.626,-0.05
3.628,-0.055
3.63,-0.055
3.632,-0.05
3.634,-0.05
3.636,-0.045
3.638,-0.035
3.64,-0.035
3.642,-0.03
3.644,-0.025
3.646,-0.02
3.648,-0.02
3.65,-0.015
3.652,-0.01
3.654,-0.005
3.656,0
3.658,0.005
3.66,0.01
3.662,0.01
3.664,0.01
3.666,0.005
3.668,0
3.67,-0.01
3.672,-0.015
3.674,-0.025
3.676,-0.03
3.678,-0.035
3.68,-0.035
3.682,-0.03
3.684,-0.02
3.686,-0.005
3.688,0.005
3.69,0.02
3.692,0.03
3.694,0.04
3.696,0.05
3.698,0.055
3.7,0.06
3.702,0.07
3.704,0.08
3.706,0.09
3.708,0.1
3.71,0.105
3.712,0.11
3.714,0.11
3.716,0.11
3.718,0.105
3.72,0.1
3.722,0.1
3.724,0.105
3.726,0.115
3.728,0.135
3.73,0.155
3.732,0.18
3.734,0.195
3.736,0.205
3.738,0.2
3.74,0.19
3.742,0.17
3.744,0.15
3.746,0.13
3.748,0.115
3.75,0.11
3.752,0.11
3.754,0.115
3.756,0.12
3.758,0.125
3.76,0.125
3.762,0.12
3.764,0.105
3.766,0.09
3.768,0.065
3.77,0.045
3.772,0.03
3.774,0.015
3.776,0.005
3.778,0
3.78,-0.005
3.782,-0.005
3.784,-0.005
3.786,-0.005
3.788,-0.005
3.79,-0.005
3.792,-0.01
3.794,-0.015
3.796,-0.025
3.798,-0.03
3.8,-0.04
3.802,-0.04
3.804,-0.045
3.806,-0.045
3.808,-0.04
3.81,-0.035
3.812,-0.03
3.814,-0.025
3.816,-0.03
3.818,-0.035
3.82,-0.05
3.822,-0.065
3.824,-0.075
3.826,-0.085
3.828,-0.085
3.83,-0.08
3.832,-0.065
3.834,-0.05
3.836,-0.03
3.838,-0.01
3.84,0
3.842,0.005
3.844,0.005
3.846,0
3.848,-0.01
3.85,-0.02
3.852,-0.025
3.854,-0.03
3.856,-0.025
3.858,-0.02
3.86,-0.015
3.862,-0.01
3.864,-0.01
3.866,-0.01
3.868,-0.01
3.87,-0.01
3.872,-0.015
3.874,-0.02
3.876,-0.02
3.878,-0.025
3.88,-0.025
3.882,-0.03
3.884,-0.03
3.886,-0.035
3.888,-0.04
3.89,-0.04
3.892,-0.04
3.894,-0.035
3.896,-0.025
3.898,-0.015
3.9,-0.005
3.902,0.01
3.904,0.015
3.906,0.02
3.908,0.02
3.91,0.02
3.912,0.015
3.914,0.005
3.916,0
3.918,-0.005
3.92,-0.01
3.922,-0.015
3.924,-0.015
3.926,-0.015
3.928,-0.02
3.93,-0.025
3.932,-0.035
3.934,-0.045
3.936,-0.05
3.938,-0.055
3.94,-0.055
3.942,-0.055
3.944,-0.05
3.946,-0.04
3.948,-0.035
3.95,-0.03
3.952,-0.03
3.954,-0.035
3.956,-0.045
3.958,-0.055
3.96,-0.065
3.962,-0.065
3.964,-0.06
3.966,-0.05
3.968,-0.035
3.97,-0.02
3.972,-0.005
3.974,0
3.976,-0.005
3.978,-0.015
3.98,-0.025
3.982,-0.035
3.984,-0.035
3.986,-0.02
3.988,0.005
3.99,0.045
3.992,0.095
3.994,0.135
3.996,0.165
3.998,0.175
4,0.165
4.002,0.13
4.004,0.08
4.006,0.02
4.008,-0.04
4.01,-0.1
4.012,-0.145
4.014,-0.175
4.016,-0.195
4.018,-0.2
4.02,-0.2
4.022,-0.195
4.024,-0.18
4.026,-0.165
4.028,-0.145
4.03,-0.125
4.032,-0.1
4.034,-0.075
4.036,-0.055
4.038,-0.045
4.04,-0.035
4.042,-0.04
4.044,-0.045
4.046,-0.055
4.048,-0.065
4.05,-0.07
4.052,-0.07
4.054,-0.065
4.056,-0.06
4.058,-0.05
4.06,-0.04
4.062,-0.035
4.064,-0.035
4.066,-0.035
4.068,-0.035
4.07,-0.035
4.072,-0.03
4.074,-0.025
4.076,-0.015
4.078,-0.01
4.08,-0.01
4.082,-0.015
4.084,-0.025
4.086,-0.04
4.088,-0.055
4.09,-0.07
4.092,-0.075
4.094,-0.075
4.096,-0.06
4.098,-0.04
4.1,-0.02
4.102,0.005
4.104,0.02
4.106,0.03
4.108,0.025
4.11,0.015
4.112,-0.005
4.114,-0.02
4.116,-0.035
4.118,-0.045
4.12,-0.05
4.122,-0.04
4.124,-0.025
4.126,-0.01
4.128,0.01
4.13,0.025
4.132,0.035
4.134,0.045
4.136,0.04
4.138,0.04
4.14,0.03
4.142,0.025
4.144,0.025
4.146,0.025
4.148,0.03
4.15,0.04
4.152,0.05
4.154,0.065
4.156,0.075
4.158,0.09
4.16,0.095
4.162,0.1
4.164,0.105
4.166,0.11
4.168,0.115
4.17,0.12
4.172,0.13
4.174,0.14
4.176,0.15
4.178,0.155
4.18,0.16
4.182,0.165
4.184,0.16
4.186,0.155
4.188,0.15
4.19,0.14
4.192,0.135
4.194,0.125
4.196,0.115
4.198,0.105
4.2,0.095
4.202,0.08
4.204,0.065
4.206,0.05
4.208,0.04
4.21,0.03
4.212,0.025
4.214,0.025
4.216,0.025
4.218,0.025
4.22,0.03
4.222,0.025
4.224,0.015
4.226,0
4.228,-0.015
4.23,-0.035
4.232,-0.055
4.234,-0.065
4.236,-0.075
4.238,-0.075
4.24,-0.065
4.242,-0.05
4.244,-0.04
4.246,-0.03
4.248,-0.02
4.25,-0.02
4.252,-0.03
4.254,-0.04
4.256,-0.05
4.258,-0.06
4.26,-0.07
4.262,-0.07
4.264,-0.07
4.266,-0.065
4.268,-0.06
4.27,-0.055
4.272,-0.06
4.274,-0.065
4.276,-0.07
4.278,-0.08
4.28,-0.085
4.282,-0.085
4.284,-0.08
4.286,-0.07
4.288,-0.06
4.29,-0.05
4.292,-0.045
4.294,-0.045
4.296,-0.055
4.298,-0.065
4.3,-0.075
4.302,-0.085
4.304,-0.085
4.306,-0.08
4.308,-0.065
4.31,-0.05
4.312,-0.03
4.314,-0.02
4.316,-0.01
4.318,-0.015
4.32,-0.025
4.322,-0.04
4.324,-0.055
4.326,-0.07
4.328,-0.075
4.33,-0.075
4.332,-0.065
4.334,-0.055
4.336,-0.045
4.338,-0.03
4.34,-0.025
4.342,-0.02
4.344,-0.015
4.346,-0.015
4.348,-0.015
4.35,-0.015
4.352,-0.015
4.354,-0.015
4.356,-0.015
4.358,-0.02
4.36,-0.025
4.362,-0.025
4.364,-0.025
4.366,-0.025
4.368,-0.02
4.37,-0.015
4.372,-0.01
4.374,-0.005
4.376,-0.005
4.378,-0.015
4.38,-0.03
4.382,-0.045
4.384,-0.06
4.386,-0.075
4.388,-0.08
4.39,-0.08
4.392,-0.07
4.394,-0.055
4.396,-0.045
4.398,-0.03
4.4,-0.025
4.402,-0.03
4.404,-0.035
4.406,-0.05
4.408,-0.06
4.41,-0.07
4.412,-0.075
4.414,-0.075
4.416,-0.07
4.418,-0.065
4.42,-0.055
4.422,-0.045
4.424,-0.04
4.426,-0.04
4.428,-0.035
4.43,-0.03
4.432,-0.025
4.434,-0.01
4.436,0.01
4.438,0.04
4.44,0.065
4.442,0.095
4.444,0.115
4.446,0.12
4.448,0.115
4.45,0.095
4.452,0.06
4.454,0.01
4.456,-0.045
4.458,-0.1
4.46,-0.15
4.462,-0.185
4.464,-0.205
4.466,-0.21
4.468,-0.2
4.47,-0.175
4.472,-0.15
4.474,-0.12
4.476,-0.095
4.478,-0.08
4.48,-0.07
4.482,-0.065
4.484,-0.07
4.486,-0.07
4.488,-0.07
4.49,-0.06
4.492,-0.055
4.494,-0.045
4.496,-0.035
4.498,-0.03
4.5,-0.035
4.502,-0.04
4.504,-0.055
4.506,-0.07
4.508,-0.08
4.51,-0.085
4.512,-0.085
4.514,-0.075
4.516,-0.055
4.518,-0.035
4.52,-0.015
4.522,0.005
4.524,0.02
4.526,0.025
4.528,0.02
4.53,0.01
4.532,0
4.534,-0.015
4.536,-0.025
4.538,-0.03
4.54,-0.025
4.542,-0.02
4.544,-0.01
4.546,0
4.548,0.01
4.55,0.015
4.552,0.015
4.554,0.015
4.556,0.005
4.558,0
4.56,-0.01
4.562,-0.015
4.564,-0.015
4.566,-0.015
4.568,-0.01
4.57,0
4.572,0.005
4.574,0.01
4.576,0.015
4.578,0.015
4.58,0.02
4.582,0.02
4.584,0.025
4.586,0.035
4.588,0.05
4.59,0.07
4.592,0.085
4.594,0.1
4.596,0.11
4.598,0.115
4.6,0.115
4.602,0.11
4.604,0.105
4.606,0.1
4.608,0.105
4.61,0.115
4.612,0.135
4.614,0.16
4.616,0.18
4.618,0.2
4.62,0.21
4.622,0.215
4.624,0.21
4.626,0.195
4.628,0.185
4.63,0.17
4.632,0.165
4.634,0.165
4.636,0.17
4.638,0.18
4.64,0.19
4.642,0.2
4.644,0.2
4.646,0.19
4.648,0.175
4.65,0.16
4.652,0.14
4.654,0.12
4.656,0.11
4.658,0.1
4.66,0.095
4.662,0.095
4.664,0.09
4.666,0.08
4.668,0.065
4.67,0.05
4.672,0.025
4.674,0.005
4.676,-0.015
4.678,-0.025
4.68,-0.03
4.682,-0.025
4.684,-0.01
4.686,0.005
4.688,0.02
4.69,0.03
4.692,0.035
4.694,0.035
4.696,0.03
4.698,0.02
4.7,0.01
4.702,0
4.704,-0.01
4.706,-0.015
4.708,-0.02
4.71,-0.025
4.712,-0.025
4.714,-0.025
4.716,-0.025
4.718,-0.025
4.72,-0.02
4.722,-0.015
4.724,-0.01
4.726,-0.005
4.728,0.005
4.73,0.01
4.732,0.015
4.734,0.015
4.736,0.015
4.738,0.01
4.74,0
4.742,-0.01
4.744,-0.02
4.746,-0.03
4.748,-0.035
4.75,-0.035
4.752,-0.03
4.754,-0.02
4.756,-0.005
4.758,0.01
4.76,0.025
4.762,0.035
4.764,0.045
4.766,0.045
4.768,0.04
4.77,0.025
4.772,0.01
4.774,-0.005
4.776,-0.02
4.778,-0.035
4.78,-0.04
4.782,-0.04
4.784,-0.035
4.786,-0.03
4.788,-0.015
4.79,-0.005
4.792,0.01
4.794,0.025
4.796,0.04
4.798,0.05
4.8,0.06
4.802,0.065
4.804,0.075
4.806,0.075
4.808,0.075
4.81,0.07
4.812,0.06
4.814,0.05
4.816,0.04
4.818,0.035
4.82,0.025
4.822,0.02
4.824,0.02
4.826,0.02
4.828,0.02
4.83,0.015
4.832,0.01
4.834,0
4.836,-0.01
4.838,-0.02
4.84,-0.03
4.842,-0.035
4.844,-0.04
4.846,-0.035
4.848,-0.03
4.85,-0.02
4.852,-0.015
4.854,-0.01
4.856,-0.015
4.858,-0.02
4.86,-0.025
4.862,-0.035
4.864,-0.04
4.866,-0.04
4.868,-0.035
4.87,-0.02
4.872,-0.005
4.874,0.015
4.876,0.03
4.878,0.045
4.88,0.06
4.882,0.07
4.884,0.08
4.886,0.09
4.888,0.1
4.89,0.115
4.892,0.125
4.894,0.13
4.896,0.125
4.898,0.115
4.9,0.09
4.902,0.05
4.904,0.005
4.906,-0.05
4.908,-0.1
4.91,-0.15
4.912,-0.18
4.914,-0.2
4.916,-0.2
4.918,-0.185
4.92,-0.155
4.922,-0.12
4.924,-0.085
4.926,-0.05
4.928,-0.025
4.93,-0.01
4.932,-0.005
4.934,-0.005
4.936,-0.015
4.938,-0.025
4.94,-0.035
4.942,-0.04
4.944,-0.045
4.946,-0.045
4.948,-0.035
4.95,-0.03
4.952,-0.02
4.954,-0.01
4.956,-0.005
4.958,0
4.96,0
4.962,-0.005
4.964,-0.005
4.966,-0.005
4.968,0
4.97,0.005
4.972,0.01
4.974,0.015
4.976,0.025
4.978,0.03
4.98,0.03
4.982,0.025
4.984,0.02
4.986,0.015
4.988,0.005
4.99,0
4.992,-0.005
4.994,-0.01
4.996,-0.01
4.998,-0.01
5,-0.01
5.002,-0.01
5.004,-0.01
5.006,-0.015
5.008,-0.02
5.01,-0.02
5.012,-0.025
5.014,-0.025
5.016,-0.025
5.018,-0.02
5.02,-0.01
5.022,0.005
5.024,0.025
5.026,0.04
5.028,0.055
5.03,0.07
5.032,0.08
5.034,0.085
5.036,0.085
5.038,0.085
5.04,0.08
5.042,0.08
5.044,0.085
5.046,0.09
5.048,0.1
5.05,0.11
5.052,0.125
5.054,0.135
5.056,0.14
5.058,0.145
5.06,0.145
5.062,0.14
5.064,0.14
5.066,0.145
5.068,0.15
5.07,0.155
5.072,0.165
5.074,0.18
5.076,0.19
5.078,0.2
5.08,0.205
5.082,0.21
5.084,0.21
5.086,0.21
5.088,0.205
5.09,0.2
5.092,0.19
5.094,0.18
5.096,0.165
5.098,0.15
5.1,0.13
5.102,0.115
5.104,0.1
5.106,0.09
5.108,0.085
5.11,0.08
5.112,0.08
5.114,0.075
5.116,0.065
5.118,0.05
5.12,0.03
5.122,0.005
5.124,-0.025
5.126,-0.05
5.128,-0.065
5.13,-0.075
5.132,-0.075
5.134,-0.06
5.136,-0.045
5.138,-0.03
5.14,-0.01
5.142,0
5.144,0.005
5.146,0
5.148,-0.005
5.15,-0.01
5.152,-0.015
5.154,-0.015
5.156,-0.01
5.158,-0.005
5.16,0.005
5.162,0.01
5.164,0.01
5.166,0.005
5.168,-0.005
5.17,-0.015
5.172,-0.03
5.174,-0.045
5.176,-0.055
5.178,-0.06
5.18,-0.06
5.182,-0.06
5.184,-0.06
5.186,-0.06
5.188,-0.06
5.19,-0.065
5.192,-0.075
5.194,-0.08
5.196,-0.08
5.198,-0.08
5.2,-0.07
5.202,-0.055
5.204,-0.04
5.206,-0.025
5.208,-0.005
5.21,0.005
5.212,0.01
5.214,0.01
5.216,0.005
5.218,0
5.22,-0.01
5.222,-0.01
5.224,-0.01
5.226,-0.005
5.228,0.005
5.23,0.01
5.232,0.02
5.234,0.025
5.236,0.02
5.238,0.015
5.24,0
5.242,-0.02
5.244,-0.04
5.246,-0.055
5.248,-0.065
5.25,-0.065
5.252,-0.055
5.254,-0.035
5.256,-0.01
5.258,0.015
5.26,0.03
5.262,0.04
5.264,0.04
5.266,0.03
5.268,0.01
5.27,-0.01
5.272,-0.03
5.274,-0.045
5.276,-0.05
5.278,-0.045
5.28,-0.035
5.282,-0.025
5.284,-0.01
5.286,-0.005
5.288,-0.005
5.29,-0.015
5.292,-0.025
5.294,-0.04
5.296,-0.055
5.298,-0.065
5.3,-0.07
5.302,-0.065
5.304,-0.06
5.306,-0.055
5.308,-0.05
5.31,-0.05
5.312,-0.05
5.314,-0.055
5.316,-0.065
5.318,-0.07
5.32,-0.075
5.322,-0.075
5.324,-0.075
5.326,-0.07
5.328,-0.065
5.33,-0.06
5.332,-0.055
5.334,-0.05
5.336,-0.04
5.338,-0.025
5.34,-0.005
5.342,0.02
5.344,0.045
5.346,0.065
5.348,0.075
5.35,0.08
5.352,0.075
5.354,0.055
5.356,0.035
5.358,0.005
5.36,-0.025
5.362,-0.055
5.364,-0.08
5.366,-0.105
5.368,-0.13
5.37,-0.145
5.372,-0.165
5.374,-0.175
5.376,-0.18
5.378,-0.18
5.38,-0.17
5.382,-0.155
5.384,-0.13
5.386,-0.105
5.388,-0.08
5.39,-0.06
5.392,-0.05
5.394,-0.045
5.396,-0.05
5.398,-0.06
5.4,-0.075
5.402,-0.085
5.404,-0.09
5.406,-0.09
5.408,-0.085
5.41,-0.08
5.412,-0.07
5.414,-0.06
5.416,-0.05
5.418,-0.045
5.42,-0.045
5.422,-0.045
5.424,-0.05
5.426,-0.055
5.428,-0.055
5.43,-0.06
5.432,-0.06
5.434,-0.06
5.436,-0.055
5.438,-0.055
5.44,-0.05
5.442,-0.05
5.444,-0.05
5.446,-0.05
5.448,-0.05
5.45,-0.055
5.452,-0.055
5.454,-0.055
5.456,-0.055
5.458,-0.05
5.46,-0.04
5.462,-0.03
5.464,-0.015
5.466,0
5.468,0.01
5.47,0.02
5.472,0.025
5.474,0.03
5.476,0.03
5.478,0.03
5.48,0.03
5.482,0.03
5.484,0.03
5.486,0.03
5.488,0.03
5.49,0.025
5.492,0.02
5.494,0.015
5.496,0.015
5.498,0.015
5.5,0.02
5.502,0.03
5.504,0.04
5.506,0.05
5.508,0.06
5.51,0.065
5.512,0.07
5.514,0.075
5.516,0.075
5.518,0.085
5.52,0.095
5.522,0.11
5.524,0.135
5.526,0.155
5.528,0.175
5.53,0.19
5.532,0.195
5.534,0.19
5.536,0.18
5.538,0.17
5.54,0.155
5.542,0.15
5.544,0.145
5.546,0.15
5.548,0.165
5.55,0.175
5.552,0.185
5.554,0.185
5.556,0.175
5.558,0.155
5.56,0.125
5.562,0.09
5.564,0.06
5.566,0.03
5.568,0.015
5.57,0.005
5.572,0.005
5.574,0.01
5.576,0.02
5.578,0.03
5.58,0.03
5.582,0.03
5.584,0.025
5.586,0.015
5.588,0
5.59,-0.005
5.592,-0.015
5.594,-0.02
5.596,-0.02
5.598,-0.02
5.6,-0.02
5.602,-0.025
5.604,-0.03
5.606,-0.035
5.608,-0.045
5.61,-0.05
5.612,-0.05
5.614,-0.05
5.616,-0.05
5.618,-0.045
5.62,-0.04
5.622,-0.035
5.624,-0.035
5.626,-0.045
5.628,-0.055
5.63,-0.065
5.632,-0.075
5.634,-0.085
5.636,-0.09
5.638,-0.09
5.64,-0.085
5.642,-0.08
5.644,-0.07
5.646,-0.06
5.648,-0.05
5.65,-0.04
5.652,-0.03
5.654,-0.025
5.656,-0.015
5.658,-0.01
5.66,-0.01
5.662,-0.005
5.664,-0.01
5.666,-0.01
5.668,-0.015
5.67,-0.025
5.672,-0.035
5.674,-0.04
5.676,-0.045
5.678,-0.05
5.68,-0.05
5.682,-0.05
5.684,-0.05
5.686,-0.045
5.688,-0.045
5.69,-0.04
5.692,-0.035
5.694,-0.035
5.696,-0.03
5.698,-0.025
5.7,-0.02
5.702,-0.015
5.704,-0.01
5.706,-0.005
5.708,0
5.71,0
5.712,0.005
5.714,0.005
5.716,0.005
5.718,0.005
5.72,0.005
5.722,0
5.724,-0.005
5.726,-0.01
5.728,-0.015
5.73,-0.015
5.732,-0.015
5.734,-0.01
5.736,0
5.738,0.005
5.74,0.015
5.742,0.025
5.744,0.025
5.746,0.025
5.748,0.02
5.75,0.01
5.752,-0.005
5.754,-0.015
5.756,-0.025
5.758,-0.03
5.76,-0.035
5.762,-0.035
5.764,-0.04
5.766,-0.04
5.768,-0.045
5.77,-0.05
5.772,-0.05
5.774,-0.055
5.776,-0.055
5.778,-0.055
5.78,-0.05
5.782,-0.045
5.784,-0.04
5.786,-0.035
5.788,-0.035
5.79,-0.035
5.792,-0.04
5.794,-0.045
5.796,-0.055
5.798,-0.055
5.8,-0.06
5.802,-0.06
5.804,-0.055
5.806,-0.045
5.808,-0.03
5.81,-0.015
5.812,0.005
5.814,0.025
5.816,0.045
5.818,0.06
5.82,0.07
5.822,0.07
5.824,0.06
5.826,0.045
5.828,0.02
5.83,-0.015
5.832,-0.05
5.834,-0.08
5.836,-0.11
5.838,-0.135
5.84,-0.15
5.842,-0.155
5.844,-0.155
5.846,-0.145
5.848,-0.135
5.85,-0.12
5.852,-0.105
5.854,-0.09
5.856,-0.08
5.858,-0.07
5.86,-0.06
5.862,-0.055
5.864,-0.055
5.866,-0.06
5.868,-0.065
5.87,-0.065
5.872,-0.07
5.874,-0.065
5.876,-0.065
5.878,-0.06
5.88,-0.05
5.882,-0.045
5.884,-0.045
5.886,-0.045
5.888,-0.05
5.89,-0.05
5.892,-0.055
5.894,-0.055
5.896,-0.05
5.898,-0.04
5.9,-0.03
5.902,-0.02
5.904,-0.015
5.906,-0.01
5.908,-0.015
5.91,-0.02
5.912,-0.03
5.914,-0.04
5.916,-0.045
5.918,-0.045
5.92,-0.04
5.922,-0.03
5.924,-0.02
5.926,-0.01
5.928,-0.005
5.93,-0.005
5.932,-0.01
5.934,-0.015
5.936,-0.02
5.938,-0.025
5.94,-0.025
5.942,-0.02
5.944,-0.015
5.946,-0.005
5.948,0.005
5.95,0.01
5.952,0.015
5.954,0.015
5.956,0.01
5.958,0.005
5.96,0.005
5.962,0.005
5.964,0.01
5.966,0.02
5.968,0.03
5.97,0.045
5.972,0.065
5.974,0.08
5.976,0.09
5.978,0.1
5.98,0.11
5.982,0.11
5.984,0.11
5.986,0.105
5.988,0.1
5.99,0.1
5.992,0.1
5.994,0.1
5.996,0.11
5.998,0.12
6,0.135
6.002,0.145
6.004,0.16
6.006,0.17
6.008,0.175
6.01,0.18
6.012,0.18
6.014,0.175
6.016,0.175
6.018,0.17
6.02,0.165
6.022,0.16
6.024,0.155
6.026,0.145
6.028,0.13
6.03,0.115
6.032,0.1
6.034,0.08
6.036,0.065
6.038,0.055
6.04,0.045
6.042,0.035
6.044,0.03
6.046,0.025
6.048,0.02
6.05,0.01
6.052,0
6.054,-0.01
6.056,-0.02
6.058,-0.025
6.06,-0.025
6.062,-0.025
6.064,-0.02
6.066,-0.01
6.068,-0.005
6.07,-0.005
6.072,-0.01
6.074,-0.015
6.076,-0.02
6.078,-0.03
6.08,-0.035
6.082,-0.04
6.084,-0.04
6.086,-0.035
6.088,-0.03
6.09,-0.025
6.092,-0.03
6.094,-0.035
6.096,-0.045
6.098,-0.055
6.1,-0.07
6.102,-0.08
6.104,-0.08
6.106,-0.075
6.108,-0.065
6.11,-0.05
6.112,-0.035
6.114,-0.025
6.116,-0.015
6.118,-0.015
6.12,-0.025
6.122,-0.035
6.124,-0.045
6.126,-0.055
6.128,-0.06
6.13,-0.06
6.132,-0.055
6.134,-0.045
6.136,-0.04
6.138,-0.035
6.14,-0.03
6.142,-0.03
6.144,-0.03
6.146,-0.035
6.148,-0.03
6.15,-0.025
6.152,-0.015
6.154,-0.01
6.156,-0.005
6.158,0
6.16,-0.01
6.162,-0.02
6.164,-0.035
6.166,-0.055
6.168,-0.065
6.17,-0.075
6.172,-0.07
6.174,-0.06
6.176,-0.045
6.178,-0.03
6.18,-0.015
6.182,-0.005
6.184,0
6.186,-0.005
6.188,-0.005
6.19,-0.01
6.192,-0.01
6.194,-0.01
6.196,-0.005
6.198,-0.005
6.2,-0.005
6.202,-0.01
6.204,-0.015
6.206,-0.02
6.208,-0.025
6.21,-0.03
6.212,-0.025
6.214,-0.015
6.216,-0.005
6.218,0.01
6.22,0.015
6.222,0.02
6.224,0.015
6.226,0
6.228,-0.015
6.23,-0.035
6.232,-0.045
6.234,-0.055
6.236,-0.055
6.238,-0.05
6.24,-0.04
6.242,-0.04
6.244,-0.035
6.246,-0.04
6.248,-0.05
6.25,-0.06
6.252,-0.065
6.254,-0.065
6.256,-0.06
6.258,-0.05
6.26,-0.04
6.262,-0.035
6.264,-0.03
6.266,-0.04
6.268,-0.05
6.27,-0.065
6.272,-0.075
6.274,-0.08
6.276,-0.08
6.278,-0.065
6.28,-0.05
6.282,-0.025
6.284,0
6.286,0.015
6.288,0.03
6.29,0.04
6.292,0.04
6.294,0.045
6.296,0.05
6.298,0.06
6.3,0.075
6.302,0.085
6.304,0.095
6.306,0.095
6.308,0.09
6.31,0.065
6.312,0.035
6.314,0
6.316,-0.045
6.318,-0.085
6.32,-0.12
6.322,-0.15
6.324,-0.17
6.326,-0.175
6.328,-0.175
6.33,-0.165
6.332,-0.15
6.334,-0.13
6.336,-0.105
6.338,-0.085
6.34,-0.06
6.342,-0.045
6.344,-0.03
6.346,-0.02
6.348,-0.02
6.35,-0.025
6.352,-0.03
6.354,-0.04
6.356,-0.05
6.358,-0.055
6.36,-0.06
6.362,-0.06
6.364,-0.06
6.366,-0.06
6.368,-0.055
6.37,-0.05
6.372,-0.045
6.374,-0.04
6.376,-0.03
6.378,-0.015
6.38,-0.005
6.382,0.005
6.384,0.015
6.386,0.02
6.388,0.015
6.39,0.005
6.392,-0.005
6.394,-0.02
6.396,-0.035
6.398,-0.04
6.4,-0.04
6.402,-0.035
6.404,-0.02
6.406,-0.005
6.408,0.01
6.41,0.025
6.412,0.035
6.414,0.04
6.416,0.045
6.418,0.045
6.42,0.04
6.422,0.035
6.424,0.035
6.426,0.035
6.428,0.035
6.43,0.04
6.432,0.04
6.434,0.04
6.436,0.04
6.438,0.035
6.44,0.035
6.442,0.035
6.444,0.04
6.446,0.045
6.448,0.05
6.45,0.06
6.452,0.07
6.454,0.085
6.456,0.1
6.458,0.115
6.46,0.125
6.462,0.14
6.464,0.15
6.466,0.16
6.468,0.165
6.47,0.17
6.472,0.17
6.474,0.165
6.476,0.16
6.478,0.155
6.48,0.155
6.482,0.155
6.484,0.16
6.486,0.165
6.488,0.18
6.49,0.19
6.492,0.205
6.494,0.215
6.496,0.215
6.498,0.215
6.5,0.21
6.502,0.2
6.504,0.185
6.506,0.17
6.508,0.16
6.51,0.145
6.512,0.135
6.514,0.125
6.516,0.12
6.518,0.11
6.52,0.11
6.522,0.105
6.524,0.1
6.526,0.1
6.528,0.095
6.53,0.09
6.532,0.08
6.534,0.07
6.536,0.06
6.538,0.045
6.54,0.035
6.542,0.02
6.544,0.01
6.546,0.005
6.548,0
6.55,0
6.552,0
6.554,0
6.556,0
6.558,0
6.56,-0.005
6.562,-0.005
6.564,-0.01
6.566,-0.01
6.568,-0.015
6.57,-0.015
6.572,-0.015
6.574,-0.015
6.576,-0.015
6.578,-0.015
6.58,-0.015
6.582,-0.02
6.584,-0.02
6.586,-0.02
6.588,-0.02
6.59,-0.015
6.592,-0.01
6.594,-0.005
6.596,0
6.598,0
6.6,0
6.602,-0.005
6.604,-0.01
6.606,-0.015
6.608,-0.02
6.61,-0.025
6.612,-0.02
6.614,-0.02
6.616,-0.015
6.618,-0.01
6.62,0
6.622,0.005
6.624,0.005
6.626,0.005
6.628,0.005
6.63,0
6.632,-0.005
6.634,-0.015
6.636,-0.015
6.638,-0.02
6.64,-0.02
6.642,-0.015
6.644,-0.005
6.646,0.005
6.648,0.01
6.65,0.015
6.652,0.015
6.654,0.015
6.656,0.005
6.658,-0.01
6.66,-0.02
6.662,-0.03
6.664,-0.035
6.666,-0.035
6.668,-0.035
6.67,-0.025
6.672,-0.02
6.674,-0.015
6.676,-0.01
6.678,-0.01
6.68,-0.01
6.682,-0.01
6.684,-0.005
6.686,0
6.688,0.01
6.69,0.02
6.692,0.035
6.694,0.045
6.696,0.05
6.698,0.05
6.7,0.045
6.702,0.03
6.704,0.02
6.706,0.005
6.708,0
6.71,0
6.712,0
6.714,0.005
6.716,0.01
6.718,0.015
6.72,0.005
6.722,-0.005
6.724,-0.02
6.726,-0.04
6.728,-0.06
6.73,-0.07
6.732,-0.075
6.734,-0.07
6.736,-0.06
6.738,-0.045
6.74,-0.035
6.742,-0.025
6.744,-0.02
6.746,-0.025
6.748,-0.03
6.75,-0.04
6.752,-0.05
6.754,-0.055
6.756,-0.055
6.758,-0.05
6.76,-0.04
6.762,-0.03
6.764,-0.02
6.766,-0.015
6.768,-0.01
6.77,-0.01
6.772,-0.005
6.774,0.005
6.776,0.015
6.778,0.04
6.78,0.065
6.782,0.095
6.784,0.12
6.786,0.14
6.788,0.145
6.79,0.135
6.792,0.105
6.794,0.07
6.796,0.02
6.798,-0.03
6.8,-0.08
6.802,-0.125
6.804,-0.165
6.806,-0.19
6.808,-0.21
6.81,-0.215
6.812,-0.215
6.814,-0.21
6.816,-0.195
6.818,-0.18
6.82,-0.155
6.822,-0.13
6.824,-0.1
6.826,-0.075
6.828,-0.05
6.83,-0.035
6.832,-0.025
6.834,-0.025
6.836,-0.03
6.838,-0.04
6.84,-0.05
6.842,-0.06
6.844,-0.07
6.846,-0.07
6.848,-0.07
6.85,-0.06
6.852,-0.05
6.854,-0.035
6.856,-0.025
6.858,-0.015
6.86,-0.005
6.862,-0.005
6.864,0
6.866,0
6.868,0
6.87,0
6.872,0
6.874,0
6.876,0
6.878,-0.005
6.88,-0.01
6.882,-0.02
6.884,-0.03
6.886,-0.035
6.888,-0.045
6.89,-0.045
6.892,-0.045
6.894,-0.035
6.896,-0.025
6.898,-0.015
6.9,-0.005
6.902,0
6.904,0
6.906,-0.005
6.908,-0.015
6.91,-0.025
6.912,-0.035
6.914,-0.045
6.916,-0.05
6.918,-0.045
6.92,-0.04
6.922,-0.025
6.924,-0.01
6.926,0.005
6.928,0.02
6.93,0.035
6.932,0.045
6.934,0.055
6.936,0.065
6.938,0.07
6.94,0.08
6.942,0.085
6.944,0.09
6.946,0.095
6.948,0.105
6.95,0.115
6.952,0.125
6.954,0.135
6.956,0.15
6.958,0.16
6.96,0.17
6.962,0.18
6.964,0.185
6.966,0.185
6.968,0.18
6.97,0.175
6.972,0.165
6.974,0.155
6.976,0.15
6.978,0.14
6.98,0.13
6.982,0.125
6.984,0.12
6.986,0.115
6.988,0.11
6.99,0.11
6.992,0.105
6.994,0.105
6.996,0.105
6.998,0.1
7,0.095
7.002,0.09
7.004,0.08
7.006,0.07
7.008,0.06
7.01,0.045
7.012,0.03
7.014,0.02
7.016,0.005
7.018,-0.005
7.02,-0.01
7.022,-0.02
7.024,-0.025
7.026,-0.03
7.028,-0.03
7.03,-0.035
7.032,-0.04
7.034,-0.04
7.036,-0.045
7.038,-0.05
7.04,-0.055
7.042,-0.06
7.044,-0.065
7.046,-0.07
7.048,-0.075
7.05,-0.08
7.052,-0.08
7.054,-0.075
7.056,-0.075
7.058,-0.07
7.06,-0.065
7.062,-0.055
7.064,-0.055
7.066,-0.05
7.068,-0.05
7.07,-0.05
7.072,-0.05
7.074,-0.05
7.076,-0.05
7.078,-0.05
7.08,-0.05
7.082,-0.05
7.084,-0.045
7.086,-0.045
7.088,-0.045
7.09,-0.045
7.092,-0.045
7.094,-0.045
7.096,-0.045
7.098,-0.045
7.1,-0.05
7.102,-0.05
7.104,-0.055
7.106,-0.06
7.108,-0.065
7.11,-0.065
7.112,-0.065
7.114,-0.06
7.116,-0.05
7.118,-0.04
7.12,-0.03
7.122,-0.025
7.124,-0.025
7.126,-0.035
7.128,-0.045
7.13,-0.06
7.132,-0.075
7.134,-0.08
7.136,-0.08
7.138,-0.075
7.14,-0.065
7.142,-0.05
7.144,-0.04
7.146,-0.03
7.148,-0.03
7.15,-0.035
7.152,-0.04
7.154,-0.05
7.156,-0.055
7.158,-0.055
7.16,-0.05
7.162,-0.04
7.164,-0.025
7.166,-0.01
7.168,0
7.17,0.005
7.172,0.005
7.174,0.005
7.176,0
7.178,-0.01
7.18,-0.02
7.182,-0.025
7.184,-0.03
7.186,-0.035
7.188,-0.045
7.19,-0.05
7.192,-0.05
7.194,-0.055
7.196,-0.055
7.198,-0.055
7.2,-0.055
7.202,-0.055
7.204,-0.055
7.206,-0.06
7.208,-0.065
7.21,-0.075
7.212,-0.08
7.214,-0.09
7.216,-0.095
7.218,-0.09
7.22,-0.085
7.222,-0.08
7.224,-0.07
7.226,-0.06
7.228,-0.06
7.23,-0.065
7.232,-0.075
7.234,-0.085
7.236,-0.1
7.238,-0.11
7.24,-0.11
7.242,-0.105
7.244,-0.095
7.246,-0.08
7.248,-0.06
7.25,-0.045
7.252,-0.03
7.254,-0.025
7.256,-0.025
7.258,-0.025
7.26,-0.02
7.262,-0.01
7.264,0.01
7.266,0.04
7.268,0.065
7.27,0.09
7.272,0.1
7.274,0.095
7.276,0.075
7.278,0.03
7.28,-0.03
7.282,-0.09
7.284,-0.15
7.286,-0.2
7.288,-0.225
7.29,-0.235
7.292,-0.225
7.294,-0.2
7.296,-0.17
7.298,-0.14
7.3,-0.12
7.302,-0.11
7.304,-0.105
7.306,-0.11
7.308,-0.115
7.31,-0.115
7.312,-0.115
7.314,-0.105
7.316,-0.09
7.318,-0.075
7.32,-0.06
7.322,-0.05
7.324,-0.045
7.326,-0.045
7.328,-0.05
7.33,-0.06
7.332,-0.065
7.334,-0.075
7.336,-0.08
7.338,-0.08
7.34,-0.085
7.342,-0.085
7.344,-0.09
7.346,-0.09
7.348,-0.09
7.35,-0.09
7.352,-0.08
7.354,-0.07
7.356,-0.055
7.358,-0.04
7.36,-0.025
7.362,-0.02
7.364,-0.02
7.366,-0.025
7.368,-0.035
7.37,-0.045
7.372,-0.055
7.374,-0.06
7.376,-0.06
7.378,-0.055
7.38,-0.045
7.382,-0.035
7.384,-0.025
7.386,-0.02
7.388,-0.02
7.39,-0.025
7.392,-0.03
7.394,-0.03
7.396,-0.025
7.398,-0.02
7.4,-0.005
7.402,0.01
7.404,0.02
7.406,0.03
7.408,0.035
7.41,0.035
7.412,0.03
7.414,0.025
7.416,0.02
7.418,0.02
7.42,0.025
7.422,0.035
7.424,0.045
7.426,0.06
7.428,0.07
7.43,0.08
7.432,0.085
7.434,0.085
7.436,0.085
7.438,0.09
7.44,0.095
7.442,0.105
7.444,0.12
7.446,0.135
7.448,0.15
7.45,0.165
7.452,0.175
7.454,0.18
7.456,0.18
7.458,0.185
7.46,0.185
7.462,0.185
7.464,0.19
7.466,0.19
7.468,0.195
7.47,0.19
7.472,0.185
7.474,0.17
7.476,0.15
7.478,0.125
7.48,0.1
7.482,0.08
7.484,0.065
7.486,0.055
7.488,0.05
7.49,0.05
7.492,0.055
7.494,0.055
7.496,0.055
7.498,0.05
7.5,0.04
7.502,0.025
7.504,0.01
7.506,-0.005
7.508,-0.02
7.51,-0.035
7.512,-0.045
7.514,-0.055
7.516,-0.06
7.518,-0.065
7.52,-0.065
7.522,-0.06
7.524,-0.06
7.526,-0.05
7.528,-0.045
7.53,-0.04
7.532,-0.035
7.534,-0.03
7.536,-0.03
7.538,-0.035
7.54,-0.035
7.542,-0.04
7.544,-0.035
7.546,-0.035
7.548,-0.03
7.55,-0.02
7.552,-0.015
7.554,-0.005
7.556,-0.005
7.558,-0.005
7.56,-0.015
7.562,-0.02
7.564,-0.03
7.566,-0.04
7.568,-0.045
7.57,-0.045
7.572,-0.045
7.574,-0.04
7.576,-0.035
7.578,-0.035
7.58,-0.035
7.582,-0.035
7.584,-0.04
7.586,-0.04
7.588,-0.04
7.59,-0.04
7.592,-0.04
7.594,-0.035
7.596,-0.03
7.598,-0.025
7.6,-0.025
7.602,-0.025
7.604,-0.03
7.606,-0.035
7.608,-0.035
7.61,-0.04
7.612,-0.035
7.614,-0.03
7.616,-0.025
7.618,-0.01
7.62,0
7.622,0.01
7.624,0.02
7.626,0.025
7.628,0.025
7.63,0.02
7.632,0.015
7.634,0.01
7.636,0.005
7.638,-0.005
7.64,-0.01
7.642,-0.02
7.644,-0.02
7.646,-0.025
7.648,-0.02
7.65,-0.015
7.652,-0.005
7.654,0
7.656,0.01
7.658,0.015
7.66,0.015
7.662,0.015
7.664,0.005
7.666,-0.01
7.668,-0.02
7.67,-0.03
7.672,-0.03
7.674,-0.025
7.676,-0.015
7.678,0.005
7.68,0.025
7.682,0.045
7.684,0.06
7.686,0.065
7.688,0.06
7.69,0.045
7.692,0.025
7.694,0.005
7.696,-0.02
7.698,-0.035
7.7,-0.045
7.702,-0.045
7.704,-0.04
7.706,-0.035
7.708,-0.025
7.71,-0.02
7.712,-0.015
7.714,-0.01
7.716,-0.015
7.718,-0.015
7.72,-0.02
7.722,-0.02
7.724,-0.02
7.726,-0.02
7.728,-0.02
7.73,-0.015
7.732,-0.015
7.734,-0.015
7.736,-0.02
7.738,-0.025
7.74,-0.035
7.742,-0.04
7.744,-0.045
7.746,-0.04
7.748,-0.03
7.75,-0.01
7.752,0.015
7.754,0.05
7.756,0.085
7.758,0.12
7.76,0.145
7.762,0.16
7.764,0.165
7.766,0.15
7.768,0.125
7.77,0.09
7.772,0.05
7.774,0.01
7.776,-0.03
7.778,-0.065
7.78,-0.09
7.782,-0.11
7.784,-0.125
7.786,-0.13
7.788,-0.135
7.79,-0.135
7.792,-0.13
7.794,-0.12
7.796,-0.11
7.798,-0.09
7.8,-0.075
7.802,-0.055
7.804,-0.035
7.806,-0.02
7.808,-0.015
7.81,-0.01
7.812,-0.01
7.814,-0.015
7.816,-0.02
7.818,-0.02
7.82,-0.025
7.822,-0.02
7.824,-0.015
7.826,-0.01
7.828,0
7.83,0.01
7.832,0.015
7.834,0.02
7.836,0.02
7.838,0.02
7.84,0.015
7.842,0.015
7.844,0.01
7.846,0.005
7.848,0
7.85,-0.005
7.852,-0.005
7.854,-0.005
7.856,0
7.858,0.005
7.86,0.01
7.862,0.02
7.864,0.03
7.866,0.035
7.868,0.04
7.87,0.04
7.872,0.04
7.874,0.035
7.876,0.025
7.878,0.015
7.88,0.005
7.882,0
7.884,-0.005
7.886,0
7.888,0.005
7.89,0.01
7.892,0.025
7.894,0.035
7.896,0.045
7.898,0.055
7.9,0.065
7.902,0.07
7.904,0.075
7.906,0.08
7.908,0.085
7.91,0.09
7.912,0.09
7.914,0.095
7.916,0.105
7.918,0.11
7.92,0.11
7.922,0.115
7.924,0.12
7.926,0.12
7.928,0.125
7.93,0.13
7.932,0.135
7.934,0.145
7.936,0.155
7.938,0.165
7.94,0.18
7.942,0.195
7.944,0.205
7.946,0.21
7.948,0.215
7.95,0.21
7.952,0.205
7.954,0.2
7.956,0.19
7.958,0.185
7.96,0.185
7.962,0.185
7.964,0.19
7.966,0.2
7.968,0.205
7.97,0.205
7.972,0.2
7.974,0.19
7.976,0.18
7.978,0.165
7.98,0.145
7.982,0.135
7.984,0.125
7.986,0.12
7.988,0.12
7.99,0.115
7.992,0.105
7.994,0.095
7.996,0.08
7.998,0.06
8,0.04
8.002,0.025
8.004,0.015
8.006,0.01
8.008,0.015
8.01,0.025
8.012,0.035
8.014,0.045
8.016,0.045
8.018,0.035
8.02,0.025
8.022,0.005
8.024,-0.01
8.026,-0.025
8.028,-0.025
8.03,-0.02
8.032,-0.01
8.034,0
8.036,0.015
8.038,0.02
8.04,0.02
8.042,0.015
8.044,0.005
8.046,-0.005
8.048,-0.015
8.05,-0.02
8.052,-0.015
8.054,-0.005
8.056,0.005
8.058,0.015
8.06,0.025
8.062,0.025
8.064,0.02
8.066,0.01
8.068,0
8.07,-0.005
8.072,-0.005
8.074,0
8.076,0.01
8.078,0.02
8.08,0.035
8.082,0.04
8.084,0.04
8.086,0.035
8.088,0.025
8.09,0.01
8.092,0
8.094,-0.005
8.096,-0.005
8.098,0
8.1,0.01
8.102,0.02
8.104,0.03
8.106,0.04
8.108,0.035
8.11,0.03
8.112,0.02
8.114,0.005
8.116,-0.005
8.118,-0.01
8.12,-0.015
8.122,-0.015
8.124,-0.01
8.126,-0.01
8.128,-0.005
8.13,-0.005
8.132,-0.005
8.134,-0.01
8.136,-0.005
8.138,-0.005
8.14,0.005
8.142,0.015
8.144,0.025
8.146,0.035
8.148,0.04
8.15,0.04
8.152,0.04
8.154,0.03
8.156,0.02
8.158,0.015
8.16,0.01
8.162,0.01
8.164,0.015
8.166,0.025
8.168,0.04
8.17,0.05
8.172,0.06
8.174,0.07
8.176,0.07
8.178,0.07
8.18,0.065
8.182,0.06
8.184,0.05
8.186,0.035
8.188,0.025
8.19,0.01
8.192,-0.005
8.194,-0.02
8.196,-0.035
8.198,-0.04
8.2,-0.045
8.202,-0.04
8.204,-0.03
8.206,-0.015
8.208,0
8.21,0.015
8.212,0.02
8.214,0.025
8.216,0.015
8.218,0.005
8.22,-0.015
8.222,-0.03
8.224,-0.045
8.226,-0.055
8.228,-0.06
8.23,-0.055
8.232,-0.045
8.234,-0.035
8.236,-0.025
8.238,-0.015
8.24,-0.005
8.242,0.005
8.244,0.01
8.246,0.015
8.248,0.015
8.25,0.02
8.252,0.025
8.254,0.03
8.256,0.04
8.258,0.045
8.26,0.055
8.262,0.065
8.264,0.075
8.266,0.08
8.268,0.075
8.27,0.065
8.272,0.04
8.274,0.015
8.276,-0.02
8.278,-0.06
8.28,-0.095
8.282,-0.12
8.284,-0.14
8.286,-0.15
8.288,-0.15
8.29,-0.145
8.292,-0.13
8.294,-0.115
8.296,-0.1
8.298,-0.085
8.3,-0.075
8.302,-0.065
8.304,-0.06
8.306,-0.05
8.308,-0.045
8.31,-0.035
8.312,-0.03
8.314,-0.025
8.316,-0.025
8.318,-0.025
8.32,-0.03
8.322,-0.03
8.324,-0.035
8.326,-0.04
8.328,-0.035
8.33,-0.035
8.332,-0.03
8.334,-0.02
8.336,-0.015
8.338,-0.01
8.34,-0.01
8.342,-0.01
8.344,-0.015
8.346,-0.02
8.348,-0.02
8.35,-0.025
8.352,-0.025
8.354,-0.02
8.356,-0.015
8.358,-0.005
8.36,0
8.362,0.005
8.364,0.005
8.366,0.005
8.368,0.005
8.37,0
8.372,-0.005
8.374,-0.005
8.376,-0.005
8.378,0
8.38,0.01
8.382,0.015
8.384,0.025
8.386,0.03
8.388,0.03
8.39,0.025
8.392,0.02
8.394,0.01
8.396,0
8.398,0
8.4,0
8.402,0.005
8.404,0.015
8.406,0.025
8.408,0.04
8.41,0.055
8.412,0.065
8.414,0.075
8.416,0.08
8.418,0.085
8.42,0.09
8.422,0.09
8.424,0.09
8.426,0.095
8.428,0.1
8.43,0.105
8.432,0.11
8.434,0.12
8.436,0.125
8.438,0.135
8.44,0.145
8.442,0.155
8.444,0.165
8.446,0.175
8.448,0.18
8.45,0.185
8.452,0.19
8.454,0.19
8.456,0.195
8.458,0.19
8.46,0.19
8.462,0.185
8.464,0.18
8.466,0.17
8.468,0.16
8.47,0.15
8.472,0.135
8.474,0.12
8.476,0.105
8.478,0.095
8.48,0.08
8.482,0.07
8.484,0.065
8.486,0.06
8.488,0.05
8.49,0.045
8.492,0.035
8.494,0.02
8.496,0.01
8.498,-0.01
8.5,-0.025
8.502,-0.045
8.504,-0.055
8.506,-0.07
8.508,-0.075
8.51,-0.075
8.512,-0.065
8.514,-0.055
8.516,-0.04
8.518,-0.02
8.52,0
8.522,0.015
8.524,0.03
8.526,0.035
8.528,0.03
8.53,0.025
8.532,0.01
8.534,-0.005
8.536,-0.025
8.538,-0.04
8.54,-0.05
8.542,-0.055
8.544,-0.055
8.546,-0.05
8.548,-0.04
8.55,-0.025
8.552,-0.015
8.554,-0.005
8.556,0
8.558,0
8.56,-0.01
8.562,-0.02
8.564,-0.035
8.566,-0.045
8.568,-0.055
8.57,-0.055
8.572,-0.045
8.574,-0.035
8.576,-0.02
8.578,-0.005
8.58,0.005
8.582,0.005
8.584,-0.005
8.586,-0.02
8.588,-0.04
8.59,-0.055
8.592,-0.06
8.594,-0.06
8.596,-0.05
8.598,-0.03
8.6,-0.01
8.602,0.005
8.604,0.015
8.606,0.01
8.608,-0.005
8.61,-0.025
8.612,-0.045
8.614,-0.065
8.616,-0.075
8.618,-0.075
8.62,-0.065
8.622,-0.045
8.624,-0.03
8.626,-0.015
8.628,-0.01
8.63,-0.015
8.632,-0.02
8.634,-0.03
8.636,-0.035
8.638,-0.035
8.64,-0.035
8.642,-0.025
8.644,-0.015
8.646,-0.01
8.648,-0.01
8.65,-0.015
8.652,-0.03
8.654,-0.04
8.656,-0.05
8.658,-0.055
8.66,-0.05
8.662,-0.04
8.664,-0.02
8.666,0
8.668,0.015
8.67,0.025
8.672,0.025
8.674,0.015
8.676,0.005
8.678,-0.01
8.68,-0.02
8.682,-0.03
8.684,-0.035
8.686,-0.035
8.688,-0.03
8.69,-0.03
8.692,-0.035
8.694,-0.04
8.696,-0.05
8.698,-0.06
8.7,-0.065
8.702,-0.07
8.704,-0.065
8.706,-0.06
8.708,-0.05
8.71,-0.045
8.712,-0.035
8.714,-0.035
8.716,-0.035
8.718,-0.045
8.72,-0.05
8.722,-0.06
8.724,-0.065
8.726,-0.07
8.728,-0.07
8.73,-0.07
8.732,-0.07
8.734,-0.065
8.736,-0.065
8.738,-0.065
8.74,-0.065
8.742,-0.065
8.744,-0.065
8.746,-0.065
8.748,-0.065
8.75,-0.065
8.752,-0.06
8.754,-0.055
8.756,-0.045
8.758,-0.025
8.76,-0.005
8.762,0.02
8.764,0.05
8.766,0.075
8.768,0.095
8.77,0.1
8.772,0.1
8.774,0.08
8.776,0.055
8.778,0.015
8.78,-0.025
8.782,-0.065
8.784,-0.105
8.786,-0.135
8.788,-0.16
8.79,-0.18
8.792,-0.19
8.794,-0.2
8.796,-0.2
8.798,-0.2
8.8,-0.19
8.802,-0.17
8.804,-0.145
8.806,-0.115
8.808,-0.08
8.81,-0.045
8.812,-0.02
8.814,-0.005
8.816,0
8.818,-0.01
8.82,-0.025
8.822,-0.045
8.824,-0.065
8.826,-0.08
8.828,-0.085
8.83,-0.08
8.832,-0.07
8.834,-0.055
8.836,-0.045
8.838,-0.04
8.84,-0.04
8.842,-0.05
8.844,-0.06
8.846,-0.07
8.848,-0.08
8.85,-0.08
8.852,-0.08
8.854,-0.07
8.856,-0.055
8.858,-0.045
8.86,-0.03
8.862,-0.025
8.864,-0.02
8.866,-0.02
8.868,-0.025
8.87,-0.025
8.872,-0.025
8.874,-0.02
8.876,-0.02
8.878,-0.015
8.88,-0.015
8.882,-0.02
8.884,-0.025
8.886,-0.035
8.888,-0.04
8.89,-0.05
8.892,-0.055
8.894,-0.055
8.896,-0.05
8.898,-0.045
8.9,-0.035
8.902,-0.025
8.904,-0.015
8.906,-0.005
8.908,0.005
8.91,0.015
8.912,0.03
8.914,0.04
8.916,0.05
8.918,0.05
8.92,0.05
8.922,0.045
8.924,0.03
8.926,0.02
8.928,0.005
8.93,0
8.932,0.005
8.934,0.02
8.936,0.045
8.938,0.075
8.94,0.105
8.942,0.13
8.944,0.15
8.946,0.16
8.948,0.165
8.95,0.16
8.952,0.15
8.954,0.145
8.956,0.145
8.958,0.145
8.96,0.15
8.962,0.155
8.964,0.16
8.966,0.16
8.968,0.15
8.97,0.145
8.972,0.13
8.974,0.12
8.976,0.11
8.978,0.1
8.98,0.095
8.982,0.085
8.984,0.075
8.986,0.065
8.988,0.045
8.99,0.025
8.992,0.005
8.994,-0.01
8.996,-0.02
8.998,-0.02
9,-0.015
9.002,-0.005
9.004,0.005
9.006,0.01
9.008,0.01
9.01,-0.005
9.012,-0.02
9.014,-0.045
9.016,-0.07
9.018,-0.09
9.02,-0.105
9.022,-0.11
9.024,-0.11
9.026,-0.105
9.028,-0.095
9.03,-0.09
9.032,-0.08
9.034,-0.075
9.036,-0.075
9.038,-0.07
9.04,-0.065
9.042,-0.06
9.044,-0.055
9.046,-0.05
9.048,-0.05
9.05,-0.05
9.052,-0.055
9.054,-0.055
9.056,-0.06
9.058,-0.065
9.06,-0.065
9.062,-0.065
9.064,-0.06
9.066,-0.055
9.068,-0.05
9.07,-0.05
9.072,-0.055
9.074,-0.065
9.076,-0.075
9.078,-0.08
9.08,-0.09
9.082,-0.09
9.084,-0.085
9.086,-0.075
9.088,-0.065
9.09,-0.055
9.092,-0.045
9.094,-0.04
9.096,-0.04
9.098,-0.045
9.1,-0.055
9.102,-0.065
9.104,-0.08
9.106,-0.09
9.108,-0.1
9.11,-0.105
9.112,-0.105
9.114,-0.11
9.116,-0.105
9.118,-0.105
9.12,-0.1
9.122,-0.1
9.124,-0.09
9.126,-0.085
9.128,-0.08
9.13,-0.07
9.132,-0.06
9.134,-0.05
9.136,-0.045
9.138,-0.045
9.14,-0.045
9.142,-0.05
9.144,-0.06
9.146,-0.07
9.148,-0.075
9.15,-0.08
9.152,-0.075
9.154,-0.065
9.156,-0.055
9.158,-0.04
9.16,-0.03
9.162,-0.025
9.164,-0.025
9.166,-0.025
9.168,-0.035
9.17,-0.045
9.172,-0.05
9.174,-0.055
9.176,-0.055
9.178,-0.05
9.18,-0.045
9.182,-0.045
9.184,-0.045
9.186,-0.055
9.188,-0.065
9.19,-0.075
9.192,-0.085
9.194,-0.09
9.196,-0.085
9.198,-0.075
9.2,-0.06
9.202,-0.045
9.204,-0.035
9.206,-0.03
9.208,-0.03
9.21,-0.04
9.212,-0.055
9.214,-0.07
9.216,-0.085
9.218,-0.095
9.22,-0.1
9.222,-0.095
9.224,-0.09
9.226,-0.08
9.228,-0.075
9.23,-0.075
9.232,-0.08
9.234,-0.09
9.236,-0.105
9.238,-0.115
9.24,-0.125
9.242,-0.13
9.244,-0.135
9.246,-0.13
9.248,-0.12
9.25,-0.11
9.252,-0.09
9.254,-0.07
9.256,-0.05
9.258,-0.03
9.26,-0.005
9.262,0.015
9.264,0.03
9.266,0.045
9.268,0.06
9.27,0.065
9.272,0.07
9.274,0.07
9.276,0.065
9.278,0.06
9.28,0.045
9.282,0.03
9.284,0
9.286,-0.035
9.288,-0.075
9.29,-0.12
9.292,-0.165
9.294,-0.205
9.296,-0.235
9.298,-0.25
9.3,-0.255
9.302,-0.24
9.304,-0.22
9.306,-0.195
9.308,-0.165
9.31,-0.14
9.312,-0.12
9.314,-0.105
9.316,-0.095
9.318,-0.095
9.32,-0.09
9.322,-0.09
9.324,-0.09
9.326,-0.085
9.328,-0.085
9.33,-0.08
9.332,-0.075
9.334,-0.07
9.336,-0.065
9.338,-0.055
9.34,-0.05
9.342,-0.04
9.344,-0.035
9.346,-0.03
9.348,-0.03
9.35,-0.035
9.352,-0.04
9.354,-0.05
9.356,-0.055
9.358,-0.06
9.36,-0.065
9.362,-0.06
9.364,-0.05
9.366,-0.04
9.368,-0.025
9.37,-0.02
9.372,-0.015
9.374,-0.015
9.376,-0.02
9.378,-0.025
9.38,-0.035
9.382,-0.04
9.384,-0.045
9.386,-0.04
9.388,-0.035
9.39,-0.025
9.392,-0.01
9.394,0
9.396,0.005
9.398,0.01
9.4,0.015
9.402,0.015
9.404,0.015
9.406,0.015
9.408,0.02
9.41,0.02
9.412,0.025
9.414,0.025
9.416,0.03
9.418,0.03
9.42,0.03
9.422,0.03
9.424,0.035
9.426,0.04
9.428,0.05
9.43,0.065
9.432,0.075
9.434,0.09
9.436,0.105
9.438,0.115
9.44,0.125
9.442,0.13
9.444,0.14
9.446,0.15
9.448,0.16
9.45,0.17
9.452,0.185
9.454,0.19
9.456,0.195
9.458,0.195
9.46,0.19
9.462,0.18
9.464,0.175
9.466,0.17
9.468,0.165
9.47,0.165
9.472,0.17
9.474,0.175
9.476,0.18
9.478,0.175
9.48,0.17
9.482,0.155
9.484,0.135
9.486,0.115
9.488,0.09
9.49,0.07
9.492,0.06
9.494,0.05
9.496,0.045
9.498,0.045
9.5,0.045
9.502,0.045
9.504,0.045
9.506,0.04
9.508,0.03
9.51,0.02
9.512,0.015
9.514,0.01
9.516,0.005
9.518,0.005
9.52,0.01
9.522,0.01
9.524,0.015
9.526,0.015
9.528,0.015
9.53,0.005
9.532,-0.005
9.534,-0.015
9.536,-0.025
9.538,-0.035
9.54,-0.045
9.542,-0.045
9.544,-0.04
9.546,-0.03
9.548,-0.02
9.55,-0.01
9.552,0
9.554,0.005
9.556,0
9.558,-0.01
9.56,-0.02
9.562,-0.035
9.564,-0.045
9.566,-0.05
9.568,-0.045
9.57,-0.04
9.572,-0.03
9.574,-0.015
9.576,-0.005
9.578,0
9.58,0
9.582,-0.005
9.584,-0.015
9.586,-0.025
9.588,-0.03
9.59,-0.035
9.592,-0.035
9.594,-0.025
9.596,-0.02
9.598,-0.015
9.6,-0.01
9.602,-0.005
9.604,-0.005
9.606,-0.01
9.608,-0.01
9.61,-0.005
9.612,-0.005
9.614,0.005
9.616,0.005
9.618,0.01
9.62,0.005
9.622,-0.005
9.624,-0.015
9.626,-0.03
9.628,-0.035
9.63,-0.035
9.632,-0.03
9.634,-0.01
9.636,0.015
9.638,0.045
9.64,0.07
9.642,0.085
9.644,0.095
9.646,0.09
9.648,0.075
9.65,0.055
9.652,0.035
9.654,0.01
9.656,-0.005
9.658,-0.015
9.66,-0.015
9.662,-0.015
9.664,-0.005
9.666,0
9.668,0.01
9.67,0.015
9.672,0.02
9.674,0.025
9.676,0.025
9.678,0.025
9.68,0.02
9.682,0.015
9.684,0.01
9.686,0
9.688,-0.005
9.69,-0.01
9.692,-0.01
9.694,-0.01
9.696,0
9.698,0.01
9.7,0.02
9.702,0.025
9.704,0.03
9.706,0.025
9.708,0.015
9.71,0.005
9.712,-0.005
9.714,-0.02
9.716,-0.025
9.718,-0.03
9.72,-0.03
9.722,-0.03
9.724,-0.025
9.726,-0.02
9.728,-0.015
9.73,-0.015
9.732,-0.01
9.734,-0.005
9.736,0.005
9.738,0.01
9.74,0.01
9.742,0.015
9.744,0.015
9.746,0.015
9.748,0.015
9.75,0.02
9.752,0.03
9.754,0.045
9.756,0.07
9.758,0.1
9.76,0.135
9.762,0.165
9.764,0.185
9.766,0.195
9.768,0.19
9.77,0.17
9.772,0.13
9.774,0.085
9.776,0.03
9.778,-0.025
9.78,-0.07
9.782,-0.115
9.784,-0.145
9.786,-0.165
9.788,-0.17
9.79,-0.17
9.792,-0.16
9.794,-0.145
9.796,-0.12
9.798,-0.095
9.8,-0.065
9.802,-0.04
9.804,-0.015
9.806,0.005
9.808,0.015
9.81,0.02
9.812,0.015
9.814,0.01
9.816,0
9.818,-0.005
9.82,-0.01
9.822,-0.005
9.824,0.005
9.826,0.015
9.828,0.025
9.83,0.035
9.832,0.04
9.834,0.04
9.836,0.04
9.838,0.035
9.84,0.03
9.842,0.025
9.844,0.025
9.846,0.025
9.848,0.025
9.85,0.025
9.852,0.02
9.854,0.015
9.856,0.01
9.858,0.005
9.86,0.01
9.862,0.015
9.864,0.025
9.866,0.04
9.868,0.05
9.87,0.06
9.872,0.065
9.874,0.06
9.876,0.045
9.878,0.03
9.88,0.02
9.882,0.01
9.884,0.01
9.886,0.025
9.888,0.04
9.89,0.06
9.892,0.08
9.894,0.095
9.896,0.1
9.898,0.1
9.9,0.09
9.902,0.085
9.904,0.08
9.906,0.08
9.908,0.09
9.91,0.105
9.912,0.12
9.914,0.13
9.916,0.14
9.918,0.14
9.92,0.13
9.922,0.12
9.924,0.105
9.926,0.1
9.928,0.105
9.93,0.115
9.932,0.14
9.934,0.17
9.936,0.205
9.938,0.235
9.94,0.26
9.942,0.27
9.944,0.275
9.946,0.265
9.948,0.25
9.95,0.23
9.952,0.21
9.954,0.2
9.956,0.19
9.958,0.195
9.96,0.2
9.962,0.21
9.964,0.22
9.966,0.225
9.968,0.225
9.97,0.22
9.972,0.205
9.974,0.19
9.976,0.17
9.978,0.15
9.98,0.14
9.982,0.135
9.984,0.135
9.986,0.14
9.988,0.145
9.99,0.145
9.992,0.14
9.994,0.125
9.996,0.1
9.998,0.07
