0,-0.09
0.002,0.05
0.004,0.17
0.006,0.275
0.008,0.36
0.01,0.415
0.012,0.445
0.014,0.45
0.016,0.44
0.018,0.41
0.02,0.365
0.022,0.31
0.024,0.24
0.026,0.16
0.028,0.075
0.03,-0.015
0.032,-0.105
0.034,-0.18
0.036,-0.235
0.038,-0.275
0.04,-0.29
0.042,-0.285
0.044,-0.27
0.046,-0.25
0.048,-0.23
0.05,-0.21
0.052,-0.2
0.054,-0.2
0.056,-0.21
0.058,-0.225
0.06,-0.245
0.062,-0.265
0.064,-0.28
0.066,-0.295
0.068,-0.305
0.07,-0.31
0.072,-0.305
0.074,-0.3
0.076,-0.29
0.078,-0.28
0.08,-0.27
0.082,-0.265
0.084,-0.27
0.086,-0.28
0.088,-0.295
0.09,-0.31
0.092,-0.325
0.094,-0.335
0.096,-0.33
0.098,-0.32
0.1,-0.3
0.102,-0.275
0.104,-0.245
0.106,-0.225
0.108,-0.21
0.11,-0.205
0.112,-0.205
0.114,-0.21
0.116,-0.22
0.118,-0.22
0.12,-0.215
0.122,-0.2
0.124,-0.18
0.126,-0.16
0.128,-0.14
0.13,-0.125
0.132,-0.125
0.134,-0.13
0.136,-0.145
0.138,-0.165
0.14,-0.185
0.142,-0.2
0.144,-0.21
0.146,-0.215
0.148,-0.215
0.15,-0.21
0.152,-0.205
0.154,-0.205
0.156,-0.205
0.158,-0.205
0.16,-0.21
0.162,-0.215
0.164,-0.215
0.166,-0.21
0.168,-0.2
0.17,-0.195
0.172,-0.185
0.174,-0.175
0.176,-0.17
0.178,-0.165
0.18,-0.165
0.182,-0.16
0.184,-0.155
0.186,-0.15
0.188,-0.135
0.19,-0.12
0.192,-0.1
0.194,-0.08
0.196,-0.065
0.198,-0.05
0.2,-0.04
0.202,-0.035
0.204,-0.03
0.206,-0.03
0.208,-0.035
0.21,-0.035
0.212,-0.035
0.214,-0.035
0.216,-0.03
0.218,-0.02
0.22,-0.005
0.222,0.01
0.224,0.025
0.226,0.045
0.228,0.065
0.23,0.085
0.232,0.1
0.234,0.11
0.236,0.115
0.238,0.115
0.24,0.11
0.242,0.1
0.244,0.09
0.246,0.085
0.248,0.08
0.25,0.085
0.252,0.09
0.254,0.095
0.256,0.105
0.258,0.11
0.26,0.115
0.262,0.115
0.264,0.105
0.266,0.1
0.268,0.09
0.27,0.08
0.272,0.07
0.274,0.065
0.276,0.065
0.278,0.06
0.28,0.06
0.282,0.06
0.284,0.05
0.286,0.04
0.288,0.025
0.29,0.01
0.292,-0.01
0.294,-0.03
0.296,-0.05
0.298,-0.06
0.3,-0.07
0.302,-0.08
0.304,-0.085
0.306,-0.085
0.308,-0.09
0.31,-0.095
0.312,-0.1
0.314,-0.11
0.316,-0.12
0.318,-0.13
0.32,-0.14
0.322,-0.14
0.324,-0.14
0.326,-0.135
0.328,-0.125
0.33,-0.12
0.332,-0.11
0.334,-0.11
0.336,-0.115
0.338,-0.125
0.34,-0.14
0.342,-0.155
0.344,-0.165
0.346,-0.17
0.348,-0.165
0.35,-0.155
0.352,-0.14
0.354,-0.125
0.356,-0.11
0.358,-0.105
0.36,-0.105
0.362,-0.11
0.364,-0.12
0.366,-0.135
0.368,-0.14
0.37,-0.14
0.372,-0.13
0.374,-0.12
0.376,-0.1
0.378,-0.09
0.38,-0.08
0.382,-0.08
0.384,-0.085
0.386,-0.1
0.388,-0.12
0.39,-0.14
0.392,-0.155
0.394,-0.165
0.396,-0.17
0.398,-0.17
0.4,-0.165
0.402,-0.16
0.404,-0.155
0.406,-0.145
0.408,-0.14
0.41,-0.135
0.412,-0.13
0.414,-0.125
0.416,-0.115
0.418,-0.11
0.42,-0.105
0.422,-0.105
0.424,-0.105
0.426,-0.11
0.428,-0.115
0.43,-0.12
0.432,-0.12
0.434,-0.115
0.436,-0.11
0.438,-0.105
0.44,-0.095
0.442,-0.085
0.444,-0.08
0.446,-0.08
0.448,-0.085
0.45,-0.09
0.452,-0.095
0.454,-0.1
0.456,-0.1
0.458,-0.1
0.46,-0.09
0.462,-0.08
0.464,-0.075
0.466,-0.065
0.468,-0.065
0.47,-0.07
0.472,-0.08
0.474,-0.095
0.476,-0.11
0.478,-0.125
0.48,-0.135
0.482,-0.14
0.484,-0.135
0.486,-0.125
0.488,-0.115
0.49,-0.105
0.492,-0.095
0.494,-0.085
0.496,-0.085
0.498,-0.09
0.5,-0.095
0.502,-0.095
0.504,-0.095
0.506,-0.09
0.508,-0.08
0.51,-0.065
0.512,-0.055
0.514,-0.05
0.516,-0.05
0.518,-0.06
0.52,-0.075
0.522,-0.09
0.524,-0.11
0.526,-0.12
0.528,-0.125
0.53,-0.115
0.532,-0.1
0.534,-0.08
0.536,-0.055
0.538,-0.04
0.54,-0.03
0.542,-0.03
0.544,-0.04
0.546,-0.06
0.548,-0.08
0.55,-0.1
0.552,-0.12
0.554,-0.125
0.556,-0.13
0.558,-0.12
0.56,-0.11
0.562,-0.1
0.564,-0.095
0.566,-0.09
0.568,-0.095
0.57,-0.1
0.572,-0.115
0.574,-0.125
0.576,-0.135
0.578,-0.14
0.58,-0.135
0.582,-0.12
0.584,-0.1
0.586,-0.075
0.588,-0.045
0.59,-0.02
0.592,-0.005
0.594,0.005
0.596,0
0.598,-0.015
0.6,-0.04
0.602,-0.065
0.604,-0.085
0.606,-0.1
0.608,-0.105
0.61,-0.1
0.612,-0.085
0.614,-0.065
0.616,-0.045
0.618,-0.03
0.62,-0.02
0.622,-0.025
0.624,-0.035
0.626,-0.05
0.628,-0.065
0.63,-0.08
0.632,-0.09
0.634,-0.095
0.636,-0.095
0.638,-0.095
0.64,-0.09
0.642,-0.09
0.644,-0.095
0.646,-0.095
0.648,-0.1
0.65,-0.1
0.652,-0.095
0.654,-0.085
0.656,-0.075
0.658,-0.06
0.66,-0.055
0.662,-0.055
0.664,-0.06
0.666,-0.075
0.668,-0.095
0.67,-0.12
0.672,-0.135
0.674,-0.14
0.676,-0.135
0.678,-0.12
0.68,-0.095
0.682,-0.065
0.684,-0.035
0.686,-0.015
0.688,-0.005
0.69,-0.005
0.692,-0.01
0.694,-0.025
0.696,-0.045
0.698,-0.055
0.7,-0.065
0.702,-0.065
0.704,-0.06
0.706,-0.055
0.708,-0.045
0.71,-0.04
0.712,-0.035
0.714,-0.035
0.716,-0.04
0.718,-0.05
0.72,-0.055
0.722,-0.06
0.724,-0.065
0.726,-0.07
0.728,-0.07
0.73,-0.07
0.732,-0.07
0.734,-0.075
0.736,-0.075
0.738,-0.075
0.74,-0.075
0.742,-0.08
0.744,-0.08
0.746,-0.08
0.748,-0.085
0.75,-0.09
0.752,-0.095
0.754,-0.105
0.756,-0.115
0.758,-0.12
0.76,-0.12
0.762,-0.115
0.764,-0.105
0.766,-0.085
0.768,-0.065
0.77,-0.045
0.772,-0.025
0.774,-0.015
0.776,-0.005
0.778,-0.005
0.78,-0.01
0.782,-0.015
0.784,-0.02
0.786,-0.03
0.788,-0.035
0.79,-0.04
0.792,-0.04
0.794,-0.045
0.796,-0.055
0.798,-0.06
0.8,-0.065
0.802,-0.07
0.804,-0.065
0.806,-0.06
0.808,-0.05
0.81,-0.03
0.812,-0.01
0.814,0.01
0.816,0.025
0.818,0.035
0.82,0.04
0.822,0.035
0.824,0.03
0.826,0.02
0.828,0.01
0.83,0.005
0.832,0.005
0.834,0.005
0.836,0.015
0.838,0.025
0.84,0.035
0.842,0.045
0.844,0.045
0.846,0.045
0.848,0.035
0.85,0.025
0.852,0.015
0.854,0.005
0.856,-0.005
0.858,-0.01
0.86,-0.015
0.862,-0.015
0.864,-0.01
0.866,-0.005
0.868,-0.005
0.87,0
0.872,0
0.874,-0.005
0.876,-0.01
0.878,-0.02
0.88,-0.03
0.882,-0.04
0.884,-0.05
0.886,-0.055
0.888,-0.055
0.89,-0.05
0.892,-0.045
0.894,-0.035
0.896,-0.025
0.898,-0.025
0.9,-0.025
0.902,-0.03
0.904,-0.045
0.906,-0.065
0.908,-0.085
0.91,-0.11
0.912,-0.125
0.914,-0.13
0.916,-0.13
0.918,-0.125
0.92,-0.11
0.922,-0.095
0.924,-0.085
0.926,-0.075
0.928,-0.07
0.93,-0.07
0.932,-0.075
0.934,-0.08
0.936,-0.09
0.938,-0.105
0.94,-0.11
0.942,-0.12
0.944,-0.125
0.946,-0.13
0.948,-0.125
0.95,-0.12
0.952,-0.11
0.954,-0.095
0.956,-0.07
0.958,-0.04
0.96,-0.015
0.962,0.015
0.964,0.04
0.966,0.055
0.968,0.055
0.97,0.05
0.972,0.04
0.974,0.03
0.976,0.03
0.978,0.045
0.98,0.08
0.982,0.145
0.984,0.23
0.986,0.335
0.988,0.445
0.99,0.555
0.992,0.65
0.994,0.715
0.996,0.745
0.998,0.74
1,0.7
1.002,0.625
1.004,0.53
1.006,0.42
1.008,0.3
1.01,0.19
1.012,0.09
1.014,0
1.016,-0.065
1.018,-0.11
1.02,-0.14
1.022,-0.15
1.024,-0.14
1.026,-0.125
1.028,-0.1
1.03,-0.07
1.032,-0.04
1.034,-0.02
1.036,0
1.038,0.005
1.04,0.005
1.042,0
1.044,-0.01
1.046,-0.02
1.048,-0.03
1.05,-0.035
1.052,-0.04
1.054,-0.045
1.056,-0.045
1.058,-0.05
1.06,-0.05
1.062,-0.055
1.064,-0.055
1.066,-0.06
1.068,-0.065
1.07,-0.065
1.072,-0.065
1.074,-0.06
1.076,-0.055
1.078,-0.055
1.08,-0.05
1.082,-0.045
1.084,-0.045
1.086,-0.045
1.088,-0.045
1.09,-0.05
1.092,-0.055
1.094,-0.065
1.096,-0.07
1.098,-0.075
1.1,-0.075
1.102,-0.075
1.104,-0.07
1.106,-0.06
1.108,-0.05
1.11,-0.035
1.112,-0.02
1.114,-0.01
1.116,-0.005
1.118,-0.005
1.12,-0.01
1.122,-0.02
1.124,-0.035
1.126,-0.045
1.128,-0.055
1.13,-0.06
1.132,-0.055
1.134,-0.05
1.136,-0.035
1.138,-0.02
1.14,-0.005
1.142,0.005
1.144,0.015
1.146,0.025
1.148,0.025
1.15,0.025
1.152,0.025
1.154,0.02
1.156,0.02
1.158,0.015
1.16,0.01
1.162,0.01
1.164,0.015
1.166,0.015
1.168,0.025
1.17,0.035
1.172,0.045
1.174,0.055
1.176,0.065
1.178,0.07
1.18,0.075
1.182,0.075
1.184,0.075
1.186,0.07
1.188,0.07
1.19,0.07
1.192,0.075
1.194,0.085
1.196,0.095
1.198,0.105
1.2,0.11
1.202,0.115
1.204,0.115
1.206,0.11
1.208,0.105
1.21,0.105
1.212,0.11
1.214,0.125
1.216,0.145
1.218,0.18
1.22,0.215
1.222,0.245
1.224,0.275
1.226,0.295
1.228,0.305
1.23,0.305
1.232,0.3
1.234,0.29
1.236,0.28
1.238,0.275
1.24,0.275
1.242,0.28
1.244,0.285
1.246,0.29
1.248,0.29
1.25,0.285
1.252,0.265
1.254,0.245
1.256,0.22
1.258,0.2
1.26,0.18
1.262,0.165
1.264,0.155
1.266,0.15
1.268,0.145
1.27,0.135
1.272,0.12
1.274,0.105
1.276,0.085
1.278,0.065
1.28,0.05
1.282,0.04
1.284,0.03
1.286,0.025
1.288,0.015
1.29,0.01
1.292,-0.005
1.294,-0.025
1.296,-0.045
1.298,-0.065
1.3,-0.075
1.302,-0.08
1.304,-0.075
1.306,-0.055
1.308,-0.03
1.31,-0.005
1.312,0.015
1.314,0.025
1.316,0.025
1.318,0.01
1.32,-0.01
1.322,-0.035
1.324,-0.05
1.326,-0.06
1.328,-0.055
1.33,-0.04
1.332,-0.015
1.334,0.015
1.336,0.04
1.338,0.06
1.34,0.065
1.342,0.055
1.344,0.035
1.346,0.01
1.348,-0.015
1.35,-0.04
1.352,-0.055
1.354,-0.06
1.356,-0.06
1.358,-0.05
1.36,-0.04
1.362,-0.03
1.364,-0.025
1.366,-0.025
1.368,-0.03
1.37,-0.035
1.372,-0.04
1.374,-0.05
1.376,-0.05
1.378,-0.05
1.38,-0.045
1.382,-0.045
1.384,-0.045
1.386,-0.045
1.388,-0.05
1.39,-0.06
1.392,-0.07
1.394,-0.08
1.396,-0.085
1.398,-0.085
1.4,-0.08
1.402,-0.07
1.404,-0.055
1.406,-0.035
1.408,-0.02
1.41,-0.01
1.412,0
1.414,0.005
1.416,0.005
1.418,0
1.42,-0.005
1.422,-0.005
1.424,0
1.426,0.005
1.428,0.015
1.43,0.025
1.432,0.035
1.434,0.045
1.436,0.045
1.438,0.04
1.44,0.03
1.442,0.015
1.444,-0.005
1.446,-0.025
1.448,-0.04
1.45,-0.05
1.452,-0.055
1.454,-0.05
1.456,-0.04
1.458,-0.03
1.46,-0.015
1.462,-0.005
1.464,0
1.466,-0.005
1.468,-0.01
1.47,-0.02
1.472,-0.03
1.474,-0.04
1.476,-0.045
1.478,-0.045
1.48,-0.045
1.482,-0.045
1.484,-0.04
1.486,-0.035
1.488,-0.03
1.49,-0.03
1.492,-0.03
1.494,-0.03
1.496,-0.03
1.498,-0.03
1.5,-0.03
1.502,-0.025
1.504,-0.02
1.506,-0.02
1.508,-0.015
1.51,-0.015
1.512,-0.015
1.514,-0.015
1.516,-0.015
1.518,-0.015
1.52,-0.015
1.522,-0.01
1.524,-0.005
1.526,0
1.528,0
1.53,0.005
1.532,0.005
1.534,0
1.536,-0.005
1.538,-0.01
1.54,-0.015
1.542,-0.015
1.544,-0.015
1.546,-0.015
1.548,-0.01
1.55,-0.015
1.552,-0.015
1.554,-0.02
1.556,-0.03
1.558,-0.04
1.56,-0.045
1.562,-0.045
1.564,-0.045
1.566,-0.035
1.568,-0.03
1.57,-0.02
1.572,-0.015
1.574,-0.015
1.576,-0.02
1.578,-0.03
1.58,-0.035
1.582,-0.045
1.584,-0.045
1.586,-0.04
1.588,-0.03
1.59,-0.01
1.592,0.005
1.594,0.02
1.596,0.03
1.598,0.03
1.6,0.025
1.602,0.01
1.604,0
1.606,-0.01
1.608,-0.02
1.61,-0.02
1.612,-0.02
1.614,-0.015
1.616,-0.015
1.618,-0.02
1.62,-0.025
1.622,-0.035
1.624,-0.05
1.626,-0.06
1.628,-0.065
1.63,-0.06
1.632,-0.05
1.634,-0.035
1.636,-0.02
1.638,-0.005
1.64,0.005
1.642,0.005
1.644,0
1.646,-0.01
1.648,-0.025
1.65,-0.04
1.652,-0.045
1.654,-0.045
1.656,-0.04
1.658,-0.03
1.66,-0.02
1.662,-0.01
1.664,-0.005
1.666,-0.01
1.668,-0.02
1.67,-0.035
1.672,-0.045
1.674,-0.06
1.676,-0.065
1.678,-0.06
1.68,-0.05
1.682,-0.035
1.684,-0.015
1.686,0.005
1.688,0.02
1.69,0.03
1.692,0.035
1.694,0.035
1.696,0.03
1.698,0.02
1.7,0.01
1.702,-0.005
1.704,-0.015
1.706,-0.025
1.708,-0.035
1.71,-0.04
1.712,-0.045
1.714,-0.045
1.716,-0.04
1.718,-0.03
1.72,-0.02
1.722,-0.01
1.724,0.005
1.726,0.015
1.728,0.02
1.73,0.025
1.732,0.02
1.734,0.02
1.736,0.01
1.738,0.005
1.74,0.005
1.742,0.005
1.744,0.01
1.746,0.015
1.748,0.02
1.75,0.025
1.752,0.03
1.754,0.035
1.756,0.04
1.758,0.045
1.76,0.05
1.762,0.06
1.764,0.07
1.766,0.085
1.768,0.095
1.77,0.1
1.772,0.1
1.774,0.095
1.776,0.08
1.778,0.065
1.78,0.05
1.782,0.035
1.784,0.03
1.786,0.03
1.788,0.035
1.79,0.045
1.792,0.055
1.794,0.06
1.796,0.055
1.798,0.045
1.8,0.025
1.802,0.005
1.804,-0.025
1.806,-0.045
1.808,-0.065
1.81,-0.075
1.812,-0.08
1.814,-0.075
1.816,-0.065
1.818,-0.055
1.82,-0.05
1.822,-0.04
1.824,-0.04
1.826,-0.035
1.828,-0.035
1.83,-0.035
1.832,-0.035
1.834,-0.035
1.836,-0.03
1.838,-0.025
1.84,-0.02
1.842,-0.015
1.844,-0.015
1.846,-0.02
1.848,-0.03
1.85,-0.045
1.852,-0.065
1.854,-0.085
1.856,-0.1
1.858,-0.115
1.86,-0.12
1.862,-0.12
1.864,-0.115
1.866,-0.1
1.868,-0.08
1.87,-0.055
1.872,-0.04
1.874,-0.025
1.876,-0.015
1.878,-0.015
1.88,-0.025
1.882,-0.035
1.884,-0.05
1.886,-0.06
1.888,-0.06
1.89,-0.06
1.892,-0.045
1.894,-0.03
1.896,-0.015
1.898,-0.005
1.9,0.005
1.902,0.005
1.904,-0.005
1.906,-0.01
1.908,-0.01
1.91,0
1.912,0.03
1.914,0.08
1.916,0.15
1.918,0.24
1.92,0.33
1.922,0.415
1.924,0.49
1.926,0.545
1.928,0.575
1.93,0.58
1.932,0.56
1.934,0.525
1.936,0.47
1.938,0.405
1.94,0.33
1.942,0.25
1.944,0.17
1.946,0.09
1.948,0.01
1.95,-0.06
1.952,-0.115
1.954,-0.155
1.956,-0.17
1.958,-0.17
1.96,-0.15
1.962,-0.125
1.964,-0.09
1.966,-0.06
1.968,-0.035
1.97,-0.025
1.972,-0.02
1.974,-0.025
1.976,-0.035
1.978,-0.04
1.98,-0.045
1.982,-0.045
1.984,-0.045
1.986,-0.04
1.988,-0.035
1.99,-0.035
1.992,-0.035
1.994,-0.035
1.996,-0.04
1.998,-0.045
2,-0.045
2.002,-0.045
2.004,-0.045
2.006,-0.045
2.008,-0.045
2.01,-0.045
2.012,-0.05
2.014,-0.055
2.016,-0.055
2.018,-0.05
2.02,-0.045
2.022,-0.04
2.024,-0.03
2.026,-0.025
2.028,-0.02
2.03,-0.02
2.032,-0.03
2.034,-0.04
2.036,-0.055
2.038,-0.065
2.04,-0.065
2.042,-0.06
2.044,-0.05
2.046,-0.03
2.048,-0.01
2.05,0.005
2.052,0.015
2.054,0.02
2.056,0.015
2.058,0.005
2.06,-0.01
2.062,-0.02
2.064,-0.025
2.066,-0.02
2.068,-0.01
2.07,0.005
2.072,0.02
2.074,0.03
2.076,0.035
2.078,0.03
2.08,0.02
2.082,-0.005
2.084,-0.025
2.086,-0.045
2.088,-0.06
2.09,-0.065
2.092,-0.06
2.094,-0.04
2.096,-0.015
2.098,0.015
2.1,0.045
2.102,0.07
2.104,0.09
2.106,0.105
2.108,0.11
2.11,0.11
2.112,0.105
2.114,0.1
2.116,0.09
2.118,0.085
2.12,0.08
2.122,0.08
2.124,0.085
2.126,0.09
2.128,0.105
2.13,0.12
2.132,0.135
2.134,0.155
2.136,0.17
2.138,0.185
2.14,0.195
2.142,0.2
2.144,0.2
2.146,0.195
2.148,0.19
2.15,0.185
2.152,0.185
2.154,0.185
2.156,0.19
2.158,0.2
2.16,0.215
2.162,0.23
2.164,0.24
2.166,0.255
2.168,0.26
2.17,0.27
2.172,0.27
2.174,0.275
2.176,0.275
2.178,0.27
2.18,0.265
2.182,0.26
2.184,0.25
2.186,0.235
2.188,0.22
2.19,0.2
2.192,0.18
2.194,0.16
2.196,0.14
2.198,0.125
2.2,0.115
2.202,0.11
2.204,0.105
2.206,0.1
2.208,0.09
2.21,0.08
2.212,0.06
2.214,0.04
2.216,0.02
2.218,0
2.22,-0.015
2.222,-0.025
2.224,-0.03
2.226,-0.03
2.228,-0.03
2.23,-0.03
2.232,-0.035
2.234,-0.045
2.236,-0.055
2.238,-0.07
2.24,-0.08
2.242,-0.09
2.244,-0.085
2.246,-0.075
2.248,-0.06
2.25,-0.04
2.252,-0.02
2.254,-0.005
2.256,0.005
2.258,0
2.26,-0.015
2.262,-0.03
2.264,-0.055
2.266,-0.07
2.268,-0.085
2.27,-0.095
2.272,-0.095
2.274,-0.085
2.276,-0.08
2.278,-0.07
2.28,-0.065
2.282,-0.06
2.284,-0.06
2.286,-0.06
2.288,-0.065
2.29,-0.065
2.292,-0.065
2.294,-0.065
2.296,-0.065
2.298,-0.07
2.3,-0.08
2.302,-0.095
2.304,-0.105
2.306,-0.115
2.308,-0.12
2.31,-0.12
2.312,-0.11
2.314,-0.095
2.316,-0.08
2.318,-0.065
2.32,-0.055
2.322,-0.055
2.324,-0.06
2.326,-0.075
2.328,-0.095
2.33,-0.11
2.332,-0.12
2.334,-0.115
2.336,-0.105
2.338,-0.09
2.34,-0.065
2.342,-0.04
2.344,-0.025
2.346,-0.015
2.348,-0.015
2.35,-0.025
2.352,-0.035
2.354,-0.05
2.356,-0.065
2.358,-0.075
2.36,-0.075
2.362,-0.075
2.364,-0.065
2.366,-0.06
2.368,-0.05
2.37,-0.04
2.372,-0.04
2.374,-0.04
2.376,-0.045
2.378,-0.05
2.38,-0.06
2.382,-0.07
2.384,-0.075
2.386,-0.08
2.388,-0.075
2.39,-0.075
2.392,-0.065
2.394,-0.055
2.396,-0.045
2.398,-0.04
2.4,-0.04
2.402,-0.04
2.404,-0.05
2.406,-0.06
2.408,-0.075
2.41,-0.085
2.412,-0.085
2.414,-0.085
2.416,-0.075
2.418,-0.065
2.42,-0.05
2.422,-0.04
2.424,-0.035
2.426,-0.04
2.428,-0.045
2.43,-0.05
2.432,-0.06
2.434,-0.07
2.436,-0.07
2.438,-0.07
2.44,-0.065
2.442,-0.06
2.444,-0.055
2.446,-0.06
2.448,-0.065
2.45,-0.07
2.452,-0.08
2.454,-0.085
2.456,-0.085
2.458,-0.08
2.46,-0.07
2.462,-0.06
2.464,-0.05
2.466,-0.04
2.468,-0.04
2.47,-0.04
2.472,-0.045
2.474,-0.05
2.476,-0.055
2.478,-0.055
2.48,-0.05
2.482,-0.04
2.484,-0.035
2.486,-0.03
2.488,-0.035
2.49,-0.045
2.492,-0.065
2.494,-0.085
2.496,-0.105
2.498,-0.115
2.5,-0.12
2.502,-0.115
2.504,-0.105
2.506,-0.09
2.508,-0.07
2.51,-0.06
2.512,-0.055
2.514,-0.06
2.516,-0.07
2.518,-0.085
2.52,-0.095
2.522,-0.105
2.524,-0.105
2.526,-0.1
2.528,-0.095
2.53,-0.09
2.532,-0.08
2.534,-0.08
2.536,-0.08
2.538,-0.08
2.54,-0.085
2.542,-0.08
2.544,-0.075
2.546,-0.06
2.548,-0.045
2.55,-0.025
2.552,-0.01
2.554,0.005
2.556,0.01
2.558,0.005
2.56,0
2.562,-0.005
2.564,-0.01
2.566,-0.01
2.568,0
2.57,0.01
2.572,0.025
2.574,0.045
2.576,0.055
2.578,0.06
2.58,0.055
2.582,0.04
2.584,0.02
2.586,0
2.588,-0.02
2.59,-0.04
2.592,-0.05
2.594,-0.055
2.596,-0.05
2.598,-0.045
2.6,-0.04
2.602,-0.035
2.604,-0.03
2.606,-0.035
2.608,-0.04
2.61,-0.05
2.612,-0.065
2.614,-0.08
2.616,-0.1
2.618,-0.115
2.62,-0.135
2.622,-0.145
2.624,-0.16
2.626,-0.16
2.628,-0.16
2.63,-0.145
2.632,-0.13
2.634,-0.105
2.636,-0.075
2.638,-0.05
2.64,-0.035
2.642,-0.03
2.644,-0.035
2.646,-0.05
2.648,-0.075
2.65,-0.1
2.652,-0.12
2.654,-0.135
2.656,-0.14
2.658,-0.13
2.66,-0.11
2.662,-0.09
2.664,-0.07
2.666,-0.06
2.668,-0.065
2.67,-0.075
2.672,-0.095
2.674,-0.12
2.676,-0.135
2.678,-0.14
2.68,-0.135
2.682,-0.115
2.684,-0.09
2.686,-0.065
2.688,-0.045
2.69,-0.045
2.692,-0.055
2.694,-0.08
2.696,-0.115
2.698,-0.145
2.7,-0.165
2.702,-0.17
2.704,-0.155
2.706,-0.13
2.708,-0.095
2.71,-0.065
2.712,-0.04
2.714,-0.03
2.716,-0.03
2.718,-0.035
2.72,-0.03
2.722,-0.015
2.724,0.03
2.726,0.1
2.728,0.195
2.73,0.305
2.732,0.42
2.734,0.525
2.736,0.605
2.738,0.65
2.74,0.66
2.742,0.64
2.744,0.595
2.746,0.53
2.748,0.45
2.75,0.37
2.752,0.285
2.754,0.2
2.756,0.12
2.758,0.04
2.76,-0.03
2.762,-0.09
2.764,-0.13
2.766,-0.155
2.768,-0.16
2.77,-0.145
2.772,-0.125
2.774,-0.1
2.776,-0.075
2.778,-0.07
2.78,-0.075
2.782,-0.09
2.784,-0.115
2.786,-0.14
2.788,-0.16
2.79,-0.165
2.792,-0.155
2.794,-0.13
2.796,-0.105
2.798,-0.08
2.8,-0.065
2.802,-0.06
2.804,-0.065
2.806,-0.08
2.808,-0.095
2.81,-0.11
2.812,-0.12
2.814,-0.115
2.816,-0.105
2.818,-0.085
2.82,-0.07
2.822,-0.05
2.824,-0.045
2.826,-0.04
2.828,-0.045
2.83,-0.055
2.832,-0.065
2.834,-0.07
2.836,-0.075
2.838,-0.075
2.84,-0.065
2.842,-0.06
2.844,-0.05
2.846,-0.04
2.848,-0.03
2.85,-0.02
2.852,-0.015
2.854,-0.01
2.856,-0.015
2.858,-0.02
2.86,-0.03
2.862,-0.045
2.864,-0.06
2.866,-0.075
2.868,-0.09
2.87,-0.1
2.872,-0.1
2.874,-0.095
2.876,-0.08
2.878,-0.07
2.88,-0.055
2.882,-0.045
2.884,-0.04
2.886,-0.04
2.888,-0.05
2.89,-0.06
2.892,-0.07
2.894,-0.075
2.896,-0.075
2.898,-0.07
2.9,-0.055
2.902,-0.035
2.904,-0.015
2.906,0.01
2.908,0.03
2.91,0.045
2.912,0.055
2.914,0.06
2.916,0.065
2.918,0.06
2.92,0.055
2.922,0.055
2.924,0.05
2.926,0.045
2.928,0.045
2.93,0.05
2.932,0.05
2.934,0.055
2.936,0.065
2.938,0.07
2.94,0.075
2.942,0.08
2.944,0.085
2.946,0.09
2.948,0.1
2.95,0.11
2.952,0.125
2.954,0.14
2.956,0.16
2.958,0.18
2.96,0.2
2.962,0.22
2.964,0.235
2.966,0.245
2.968,0.25
2.97,0.255
2.972,0.25
2.974,0.245
2.976,0.24
2.978,0.23
2.98,0.225
2.982,0.22
2.984,0.215
2.986,0.215
2.988,0.215
2.99,0.22
2.992,0.215
2.994,0.21
2.996,0.2
2.998,0.19
3,0.17
3.002,0.15
3.004,0.135
3.006,0.12
3.008,0.11
3.01,0.105
3.012,0.1
3.014,0.1
3.016,0.095
3.018,0.085
3.02,0.07
3.022,0.045
3.024,0.02
3.026,-0.01
3.028,-0.03
3.03,-0.05
3.032,-0.055
3.034,-0.055
3.036,-0.045
3.038,-0.025
3.04,-0.01
3.042,0.005
3.044,0.015
3.046,0.015
3.048,0.01
3.05,-0.005
3.052,-0.02
3.054,-0.035
3.056,-0.05
3.058,-0.055
3.06,-0.06
3.062,-0.055
3.064,-0.045
3.066,-0.04
3.068,-0.03
3.07,-0.03
3.072,-0.03
3.074,-0.035
3.076,-0.045
3.078,-0.06
3.08,-0.07
3.082,-0.08
3.084,-0.085
3.086,-0.09
3.088,-0.085
3.09,-0.075
3.092,-0.06
3.094,-0.045
3.096,-0.025
3.098,-0.01
3.1,0
3.102,0
3.104,-0.005
3.106,-0.015
3.108,-0.035
3.11,-0.055
3.112,-0.075
3.114,-0.09
3.116,-0.1
3.118,-0.105
3.12,-0.095
3.122,-0.085
3.124,-0.07
3.126,-0.05
3.128,-0.04
3.13,-0.03
3.132,-0.03
3.134,-0.035
3.136,-0.05
3.138,-0.065
3.14,-0.085
3.142,-0.095
3.144,-0.105
3.146,-0.105
3.148,-0.095
3.15,-0.08
3.152,-0.06
3.154,-0.04
3.156,-0.025
3.158,-0.01
3.16,0
3.162,0
3.164,-0.005
3.166,-0.015
3.168,-0.025
3.17,-0.035
3.172,-0.04
3.174,-0.04
3.176,-0.04
3.178,-0.035
3.18,-0.03
3.182,-0.025
3.184,-0.025
3.186,-0.025
3.188,-0.025
3.19,-0.03
3.192,-0.035
3.194,-0.04
3.196,-0.04
3.198,-0.04
3.2,-0.04
3.202,-0.035
3.204,-0.03
3.206,-0.03
3.208,-0.025
3.21,-0.025
3.212,-0.03
3.214,-0.03
3.216,-0.03
3.218,-0.03
3.22,-0.03
3.222,-0.03
3.224,-0.03
3.226,-0.03
3.228,-0.03
3.23,-0.035
3.232,-0.035
3.234,-0.04
3.236,-0.04
3.238,-0.035
3.24,-0.03
3.242,-0.025
3.244,-0.015
3.246,-0.01
3.248,-0.005
3.25,-0.005
3.252,-0.005
3.254,-0.01
3.256,-0.015
3.258,-0.025
3.26,-0.03
3.262,-0.035
3.264,-0.045
3.266,-0.05
3.268,-0.055
3.27,-0.055
3.272,-0.055
3.274,-0.055
3.276,-0.045
3.278,-0.04
3.28,-0.03
3.282,-0.02
3.284,-0.01
3.286,-0.005
3.288,-0.005
3.29,-0.01
3.292,-0.015
3.294,-0.025
3.296,-0.03
3.298,-0.035
3.3,-0.035
3.302,-0.03
3.304,-0.03
3.306,-0.03
3.308,-0.03
3.31,-0.04
3.312,-0.055
3.314,-0.07
3.316,-0.08
3.318,-0.09
3.32,-0.09
3.322,-0.08
3.324,-0.06
3.326,-0.04
3.328,-0.02
3.33,0
3.332,0.005
3.334,0.005
3.336,-0.005
3.338,-0.015
3.34,-0.03
3.342,-0.04
3.344,-0.045
3.346,-0.04
3.348,-0.035
3.35,-0.03
3.352,-0.025
3.354,-0.025
3.356,-0.035
3.358,-0.045
3.36,-0.055
3.362,-0.065
3.364,-0.065
3.366,-0.055
3.368,-0.04
3.37,-0.015
3.372,0.01
3.374,0.03
3.376,0.05
3.378,0.06
3.38,0.065
3.382,0.07
3.384,0.075
3.386,0.08
3.388,0.085
3.39,0.095
3.392,0.1
3.394,0.1
3.396,0.095
3.398,0.08
3.4,0.055
3.402,0.035
3.404,0.015
3.406,0
3.408,-0.005
3.41,0.005
3.412,0.015
3.414,0.03
3.416,0.04
3.418,0.045
3.42,0.035
3.422,0.02
3.424,0
3.426,-0.025
3.428,-0.05
3.43,-0.065
3.432,-0.075
3.434,-0.085
3.436,-0.085
3.438,-0.085
3.44,-0.09
3.442,-0.09
3.444,-0.09
3.446,-0.09
3.448,-0.085
3.45,-0.075
3.452,-0.065
3.454,-0.05
3.456,-0.04
3.458,-0.035
3.46,-0.03
3.462,-0.035
3.464,-0.04
3.466,-0.045
3.468,-0.045
3.47,-0.045
3.472,-0.035
3.474,-0.025
3.476,-0.015
3.478,-0.015
3.48,-0.02
3.482,-0.03
3.484,-0.05
3.486,-0.07
3.488,-0.085
3.49,-0.095
3.492,-0.095
3.494,-0.085
3.496,-0.07
3.498,-0.06
3.5,-0.05
3.502,-0.055
3.504,-0.065
3.506,-0.085
3.508,-0.11
3.51,-0.13
3.512,-0.14
3.514,-0.14
3.516,-0.12
3.518,-0.095
3.52,-0.06
3.522,-0.025
3.524,0.005
3.526,0.02
3.528,0.02
3.53,0.01
3.532,-0.01
3.534,-0.025
3.536,-0.03
3.538,-0.02
3.54,0.015
3.542,0.075
3.544,0.16
3.546,0.26
3.548,0.37
3.55,0.475
3.552,0.57
3.554,0.65
3.556,0.7
3.558,0.725
3.56,0.725
3.562,0.7
3.564,0.65
3.566,0.585
3.568,0.505
3.57,0.415
3.572,0.32
3.574,0.225
3.576,0.135
3.578,0.05
3.58,-0.025
3.582,-0.08
3.584,-0.12
3.586,-0.14
3.588,-0.145
3.59,-0.135
3.592,-0.125
3.594,-0.11
3.596,-0.095
3.598,-0.09
3.6,-0.09
3.602,-0.09
3.604,-0.095
3.606,-0.095
3.608,-0.095
3.61,-0.085
3.612,-0.07
3.614,-0.06
3.616,-0.05
3.618,-0.04
3.62,-0.04
3.622,-0.04
3.624,-0.045
3.626,-0.05
3.628,-0.05
3.63,-0.045
3.632,-0.035
3.634,-0.025
3.636,-0.015
3.638,-0.015
3.64,-0.015
3.642,-0.025
3.644,-0.035
3.646,-0.05
3.648,-0.065
3.65,-0.07
3.652,-0.065
3.654,-0.055
3.656,-0.035
3.658,-0.015
3.66,0.005
3.662,0.015
3.664,0.02
3.666,0.005
3.668,-0.015
3.67,-0.04
3.672,-0.065
3.674,-0.09
3.676,-0.105
3.678,-0.115
3.68,-0.11
3.682,-0.1
3.684,-0.09
3.686,-0.08
3.688,-0.07
3.69,-0.065
3.692,-0.07
3.694,-0.075
3.696,-0.075
3.698,-0.08
3.7,-0.075
3.702,-0.06
3.704,-0.04
3.706,-0.015
3.708,0.01
3.71,0.035
3.712,0.05
3.714,0.06
3.716,0.06
3.718,0.05
3.72,0.035
3.722,0.02
3.724,0.01
3.726,0
3.728,0.005
3.73,0.015
3.732,0.03
3.734,0.045
3.736,0.06
3.738,0.07
3.74,0.075
3.742,0.07
3.744,0.065
3.746,0.06
3.748,0.06
3.75,0.06
3.752,0.065
3.754,0.075
3.756,0.085
3.758,0.095
3.76,0.105
3.762,0.11
3.764,0.105
3.766,0.1
3.768,0.095
3.77,0.095
3.772,0.095
3.774,0.1
3.776,0.115
3.778,0.13
3.78,0.155
3.782,0.175
3.784,0.195
3.786,0.215
3.788,0.23
3.79,0.24
3.792,0.25
3.794,0.255
3.796,0.26
3.798,0.265
3.8,0.27
3.802,0.275
3.804,0.28
3.806,0.285
3.808,0.285
3.81,0.285
3.812,0.275
3.814,0.265
3.816,0.255
3.818,0.24
3.82,0.22
3.822,0.2
3.824,0.18
3.826,0.16
3.828,0.135
3.83,0.115
3.832,0.09
3.834,0.065
3.836,0.045
3.838,0.02
3.84,0.005
3.842,-0.01
3.844,-0.015
3.846,-0.02
3.848,-0.02
3.85,-0.02
3.852,-0.025
3.854,-0.03
3.856,-0.04
3.858,-0.055
3.86,-0.07
3.862,-0.085
3.864,-0.095
3.866,-0.09
3.868,-0.085
3.87,-0.065
3.872,-0.04
3.874,-0.01
3.876,0.01
3.878,0.025
3.88,0.035
3.882,0.03
3.884,0.015
3.886,-0.005
3.888,-0.025
3.89,-0.035
3.892,-0.04
3.894,-0.035
3.896,-0.02
3.898,-0.005
3.9,0.015
3.902,0.025
3.904,0.03
3.906,0.02
3.908,0.005
3.91,-0.02
3.912,-0.045
3.914,-0.065
3.916,-0.08
3.918,-0.085
3.92,-0.08
3.922,-0.065
3.924,-0.05
3.926,-0.04
3.928,-0.035
3.93,-0.035
3.932,-0.045
3.934,-0.06
3.936,-0.08
3.938,-0.1
3.94,-0.11
3.942,-0.115
3.944,-0.105
3.946,-0.09
3.948,-0.07
3.95,-0.05
3.952,-0.035
3.954,-0.03
3.956,-0.03
3.958,-0.04
3.96,-0.05
3.962,-0.065
3.964,-0.08
3.966,-0.085
3.968,-0.08
3.97,-0.075
3.972,-0.06
3.974,-0.04
3.976,-0.025
3.978,-0.01
3.98,0.005
3.982,0.01
3.984,0.015
3.986,0.015
3.988,0.015
3.99,0.01
3.992,0
3.994,-0.015
3.996,-0.03
3.998,-0.045
4,-0.065
4.002,-0.075
4.004,-0.085
4.006,-0.09
4.008,-0.09
4.01,-0.08
4.012,-0.07
4.014,-0.06
4.016,-0.05
4.018,-0.045
4.02,-0.045
4.022,-0.05
4.024,-0.055
4.026,-0.065
4.028,-0.07
4.03,-0.075
4.032,-0.07
4.034,-0.065
4.036,-0.055
4.038,-0.045
4.04,-0.03
4.042,-0.02
4.044,-0.015
4.046,-0.01
4.048,-0.01
4.05,-0.01
4.052,-0.01
4.054,-0.01
4.056,-0.015
4.058,-0.015
4.06,-0.015
4.062,-0.02
4.064,-0.025
4.066,-0.025
4.068,-0.035
4.07,-0.04
4.072,-0.045
4.074,-0.05
4.076,-0.05
4.078,-0.05
4.08,-0.05
4.082,-0.05
4.084,-0.045
4.086,-0.04
4.088,-0.04
4.09,-0.035
4.092,-0.035
4.094,-0.035
4.096,-0.035
4.098,-0.04
4.1,-0.04
4.102,-0.045
4.104,-0.05
4.106,-0.055
4.108,-0.06
4.11,-0.065
4.112,-0.065
4.114,-0.065
4.116,-0.06
4.118,-0.055
4.12,-0.05
4.122,-0.04
4.124,-0.035
4.126,-0.035
4.128,-0.035
4.13,-0.04
4.132,-0.045
4.134,-0.055
4.136,-0.06
4.138,-0.065
4.14,-0.065
4.142,-0.065
4.144,-0.06
4.146,-0.05
4.148,-0.045
4.15,-0.04
4.152,-0.035
4.154,-0.04
4.156,-0.045
4.158,-0.05
4.16,-0.06
4.162,-0.065
4.164,-0.07
4.166,-0.07
4.168,-0.065
4.17,-0.055
4.172,-0.05
4.174,-0.04
4.176,-0.03
4.178,-0.025
4.18,-0.025
4.182,-0.03
4.184,-0.04
4.186,-0.05
4.188,-0.06
4.19,-0.07
4.192,-0.08
4.194,-0.085
4.196,-0.085
4.198,-0.085
4.2,-0.075
4.202,-0.065
4.204,-0.055
4.206,-0.05
4.208,-0.045
4.21,-0.045
4.212,-0.055
4.214,-0.06
4.216,-0.07
4.218,-0.075
4.22,-0.075
4.222,-0.065
4.224,-0.05
4.226,-0.03
4.228,-0.01
4.23,0.005
4.232,0.015
4.234,0.015
4.236,0.005
4.238,-0.015
4.24,-0.04
4.242,-0.065
4.244,-0.085
4.246,-0.095
4.248,-0.1
4.25,-0.1
4.252,-0.09
4.254,-0.08
4.256,-0.07
4.258,-0.07
4.26,-0.07
4.262,-0.075
4.264,-0.085
4.266,-0.095
4.268,-0.095
4.27,-0.095
4.272,-0.085
4.274,-0.07
4.276,-0.05
4.278,-0.03
4.28,-0.01
4.282,-0.005
4.284,0
4.286,-0.01
4.288,-0.025
4.29,-0.045
4.292,-0.065
4.294,-0.08
4.296,-0.09
4.298,-0.1
4.3,-0.1
4.302,-0.095
4.304,-0.085
4.306,-0.08
4.308,-0.07
4.31,-0.06
4.312,-0.055
4.314,-0.05
4.316,-0.045
4.318,-0.04
4.32,-0.035
4.322,-0.03
4.324,-0.025
4.326,-0.025
4.328,-0.025
4.33,-0.025
4.332,-0.025
4.334,-0.025
4.336,-0.02
4.338,-0.015
4.34,-0.005
4.342,0.005
4.344,0.02
4.346,0.035
4.348,0.05
4.35,0.06
4.352,0.065
4.354,0.07
4.356,0.075
4.358,0.07
4.36,0.065
4.362,0.06
4.364,0.05
4.366,0.045
4.368,0.035
4.37,0.025
4.372,0.02
4.374,0.015
4.376,0.01
4.378,0.01
4.38,0.005
4.382,0.005
4.384,0
4.386,-0.005
4.388,-0.01
4.39,-0.015
4.392,-0.025
4.394,-0.025
4.396,-0.03
4.398,-0.03
4.4,-0.03
4.402,-0.03
4.404,-0.03
4.406,-0.04
4.408,-0.05
4.41,-0.065
4.412,-0.08
4.414,-0.095
4.416,-0.105
4.418,-0.115
4.42,-0.115
4.422,-0.105
4.424,-0.095
4.426,-0.08
4.428,-0.065
4.43,-0.055
4.432,-0.04
4.434,-0.035
4.436,-0.035
4.438,-0.035
4.44,-0.045
4.442,-0.055
4.444,-0.065
4.446,-0.08
4.448,-0.095
4.45,-0.105
4.452,-0.11
4.454,-0.11
4.456,-0.105
4.458,-0.095
4.46,-0.08
4.462,-0.065
4.464,-0.05
4.466,-0.045
4.468,-0.04
4.47,-0.045
4.472,-0.055
4.474,-0.06
4.476,-0.07
4.478,-0.075
4.48,-0.075
4.482,-0.065
4.484,-0.055
4.486,-0.04
4.488,-0.025
4.49,-0.015
4.492,0
4.494,0.01
4.496,0.03
4.498,0.055
4.5,0.095
4.502,0.155
4.504,0.23
4.506,0.32
4.508,0.42
4.51,0.515
4.512,0.605
4.514,0.675
4.516,0.715
4.518,0.73
4.52,0.71
4.522,0.665
4.524,0.59
4.526,0.5
4.528,0.4
4.53,0.295
4.532,0.19
4.534,0.1
4.536,0.025
4.538,-0.035
4.54,-0.075
4.542,-0.1
4.544,-0.105
4.546,-0.1
4.548,-0.09
4.55,-0.075
4.552,-0.065
4.554,-0.055
4.556,-0.05
4.558,-0.05
4.56,-0.055
4.562,-0.06
4.564,-0.065
4.566,-0.07
4.568,-0.07
4.57,-0.065
4.572,-0.06
4.574,-0.05
4.576,-0.045
4.578,-0.04
4.58,-0.035
4.582,-0.035
4.584,-0.04
4.586,-0.045
4.588,-0.055
4.59,-0.065
4.592,-0.07
4.594,-0.075
4.596,-0.075
4.598,-0.07
4.6,-0.06
4.602,-0.055
4.604,-0.05
4.606,-0.05
4.608,-0.055
4.61,-0.06
4.612,-0.07
4.614,-0.075
4.616,-0.08
4.618,-0.075
4.62,-0.07
4.622,-0.055
4.624,-0.035
4.626,-0.02
4.628,-0.01
4.63,-0.005
4.632,-0.01
4.634,-0.025
4.636,-0.045
4.638,-0.065
4.64,-0.08
4.642,-0.09
4.644,-0.085
4.646,-0.07
4.648,-0.05
4.65,-0.02
4.652,0.005
4.654,0.025
4.656,0.03
4.658,0.03
4.66,0.02
4.662,0
4.664,-0.02
4.666,-0.04
4.668,-0.055
4.67,-0.065
4.672,-0.065
4.674,-0.06
4.676,-0.05
4.678,-0.035
4.68,-0.02
4.682,-0.005
4.684,0.005
4.686,0.015
4.688,0.025
4.69,0.03
4.692,0.04
4.694,0.045
4.696,0.05
4.698,0.06
4.7,0.065
4.702,0.075
4.704,0.08
4.706,0.09
4.708,0.09
4.71,0.09
4.712,0.09
4.714,0.085
4.716,0.08
4.718,0.08
4.72,0.08
4.722,0.085
4.724,0.095
4.726,0.115
4.728,0.135
4.73,0.16
4.732,0.185
4.734,0.21
4.736,0.23
4.738,0.24
4.74,0.245
4.742,0.245
4.744,0.245
4.746,0.24
4.748,0.24
4.75,0.235
4.752,0.235
4.754,0.24
4.756,0.24
4.758,0.24
4.76,0.235
4.762,0.235
4.764,0.23
4.766,0.22
4.768,0.215
4.77,0.21
4.772,0.205
4.774,0.2
4.776,0.195
4.778,0.19
4.78,0.18
4.782,0.165
4.784,0.15
4.786,0.13
4.788,0.115
4.79,0.095
4.792,0.08
4.794,0.07
4.796,0.06
4.798,0.055
4.8,0.05
4.802,0.045
4.804,0.04
4.806,0.03
4.808,0.02
4.81,0.01
4.812,0
4.814,-0.01
4.816,-0.015
4.818,-0.02
4.82,-0.015
4.822,-0.01
4.824,0
4.826,0.01
4.828,0.02
4.83,0.025
4.832,0.025
4.834,0.02
4.836,0.01
4.838,-0.005
4.84,-0.02
4.842,-0.03
4.844,-0.04
4.846,-0.045
4.848,-0.05
4.85,-0.045
4.852,-0.045
4.854,-0.04
4.856,-0.035
4.858,-0.035
4.86,-0.035
4.862,-0.04
4.864,-0.05
4.866,-0.06
4.868,-0.07
4.87,-0.08
4.872,-0.085
4.874,-0.095
4.876,-0.095
4.878,-0.095
4.88,-0.095
4.882,-0.09
4.884,-0.085
4.886,-0.085
4.888,-0.08
4.89,-0.08
4.892,-0.075
4.894,-0.075
4.896,-0.075
4.898,-0.065
4.9,-0.055
4.902,-0.045
4.904,-0.025
4.906,-0.01
4.908,0.005
4.91,0.02
4.912,0.03
4.914,0.035
4.916,0.03
4.918,0.025
4.92,0.02
4.922,0.01
4.924,0
4.926,-0.01
4.928,-0.02
4.93,-0.035
4.932,-0.045
4.934,-0.06
4.936,-0.07
4.938,-0.075
4.94,-0.08
4.942,-0.075
4.944,-0.065
4.946,-0.055
4.948,-0.045
4.95,-0.035
4.952,-0.03
4.954,-0.035
4.956,-0.04
4.958,-0.05
4.96,-0.065
4.962,-0.075
4.964,-0.08
4.966,-0.075
4.968,-0.07
4.97,-0.06
4.972,-0.045
4.974,-0.035
4.976,-0.025
4.978,-0.025
4.98,-0.03
4.982,-0.04
4.984,-0.05
4.986,-0.06
4.988,-0.065
4.99,-0.065
4.992,-0.055
4.994,-0.04
4.996,-0.02
4.998,0
5,0.02
5.002,0.035
5.004,0.045
5.006,0.04
5.008,0.03
5.01,0.015
5.012,-0.005
5.014,-0.02
5.016,-0.035
5.018,-0.04
5.02,-0.04
5.022,-0.035
5.024,-0.025
5.026,-0.01
5.028,-0.005
5.03,0
5.032,0
5.034,-0.005
5.036,-0.015
5.038,-0.025
5.04,-0.035
5.042,-0.045
5.044,-0.05
5.046,-0.055
5.048,-0.06
5.05,-0.06
5.052,-0.065
5.054,-0.065
5.056,-0.07
5.058,-0.07
5.06,-0.07
5.062,-0.07
5.064,-0.065
5.066,-0.06
5.068,-0.055
5.07,-0.055
5.072,-0.055
5.074,-0.05
5.076,-0.055
5.078,-0.055
5.08,-0.055
5.082,-0.05
5.084,-0.045
5.086,-0.04
5.088,-0.03
5.09,-0.02
5.092,-0.01
5.094,-0.005
5.096,0
5.098,0.005
5.1,0
5.102,-0.005
5.104,-0.015
5.106,-0.025
5.108,-0.035
5.11,-0.045
5.112,-0.05
5.114,-0.05
5.116,-0.045
5.118,-0.035
5.12,-0.025
5.122,-0.015
5.124,-0.005
5.126,0
5.128,-0.005
5.13,-0.015
5.132,-0.03
5.134,-0.045
5.136,-0.06
5.138,-0.075
5.14,-0.08
5.142,-0.085
5.144,-0.085
5.146,-0.08
5.148,-0.075
5.15,-0.075
5.152,-0.075
5.154,-0.075
5.156,-0.075
5.158,-0.08
5.16,-0.075
5.162,-0.065
5.164,-0.055
5.166,-0.04
5.168,-0.03
5.17,-0.02
5.172,-0.015
5.174,-0.015
5.176,-0.02
5.178,-0.03
5.18,-0.045
5.182,-0.055
5.184,-0.06
5.186,-0.06
5.188,-0.055
5.19,-0.05
5.192,-0.035
5.194,-0.03
5.196,-0.02
5.198,-0.02
5.2,-0.02
5.202,-0.02
5.204,-0.025
5.206,-0.03
5.208,-0.03
5.21,-0.035
5.212,-0.035
5.214,-0.03
5.216,-0.035
5.218,-0.035
5.22,-0.04
5.222,-0.045
5.224,-0.055
5.226,-0.06
5.228,-0.07
5.23,-0.075
5.232,-0.08
5.234,-0.085
5.236,-0.085
5.238,-0.09
5.24,-0.095
5.242,-0.095
5.244,-0.1
5.246,-0.095
5.248,-0.09
5.25,-0.085
5.252,-0.07
5.254,-0.055
5.256,-0.045
5.258,-0.03
5.26,-0.025
5.262,-0.025
5.264,-0.025
5.266,-0.03
5.268,-0.04
5.27,-0.045
5.272,-0.05
5.274,-0.05
5.276,-0.045
5.278,-0.04
5.28,-0.035
5.282,-0.035
5.284,-0.03
5.286,-0.03
5.288,-0.035
5.29,-0.035
5.292,-0.03
5.294,-0.025
5.296,-0.02
5.298,-0.01
5.3,0
5.302,0.005
5.304,0.005
5.306,0
5.308,-0.01
5.31,-0.025
5.312,-0.04
5.314,-0.055
5.316,-0.065
5.318,-0.07
5.32,-0.075
5.322,-0.075
5.324,-0.07
5.326,-0.07
5.328,-0.075
5.33,-0.08
5.332,-0.085
5.334,-0.09
5.336,-0.095
5.338,-0.095
5.34,-0.095
5.342,-0.09
5.344,-0.085
5.346,-0.08
5.348,-0.075
5.35,-0.075
5.352,-0.065
5.354,-0.06
5.356,-0.05
5.358,-0.035
5.36,-0.02
5.362,-0.005
5.364,0.01
5.366,0.025
5.368,0.035
5.37,0.035
5.372,0.04
5.374,0.04
5.376,0.045
5.378,0.05
5.38,0.055
5.382,0.065
5.384,0.075
5.386,0.085
5.388,0.09
5.39,0.085
5.392,0.085
5.394,0.075
5.396,0.07
5.398,0.06
5.4,0.055
5.402,0.055
5.404,0.05
5.406,0.045
5.408,0.035
5.41,0.02
5.412,0.005
5.414,-0.01
5.416,-0.03
5.418,-0.045
5.42,-0.06
5.422,-0.065
5.424,-0.07
5.426,-0.075
5.428,-0.08
5.43,-0.085
5.432,-0.09
5.434,-0.095
5.436,-0.1
5.438,-0.1
5.44,-0.095
5.442,-0.085
5.444,-0.065
5.446,-0.05
5.448,-0.03
5.45,-0.015
5.452,-0.01
5.454,-0.015
5.456,-0.025
5.458,-0.04
5.46,-0.06
5.462,-0.075
5.464,-0.09
5.466,-0.09
5.468,-0.085
5.47,-0.07
5.472,-0.05
5.474,-0.035
5.476,-0.02
5.478,-0.01
5.48,-0.01
5.482,-0.02
5.484,-0.035
5.486,-0.055
5.488,-0.075
5.49,-0.09
5.492,-0.1
5.494,-0.11
5.496,-0.11
5.498,-0.105
5.5,-0.105
5.502,-0.1
5.504,-0.1
5.506,-0.095
5.508,-0.09
5.51,-0.085
5.512,-0.075
5.514,-0.065
5.516,-0.045
5.518,-0.025
5.52,-0.01
5.522,0.01
5.524,0.025
5.526,0.04
5.528,0.055
5.53,0.075
5.532,0.11
5.534,0.155
5.536,0.22
5.538,0.3
5.54,0.395
5.542,0.49
5.544,0.58
5.546,0.655
5.548,0.71
5.55,0.735
5.552,0.725
5.554,0.69
5.556,0.625
5.558,0.545
5.56,0.45
5.562,0.355
5.564,0.26
5.566,0.175
5.568,0.1
5.57,0.035
5.572,-0.015
5.574,-0.05
5.576,-0.075
5.578,-0.09
5.58,-0.095
5.582,-0.1
5.584,-0.1
5.586,-0.1
5.588,-0.1
5.59,-0.105
5.592,-0.11
5.594,-0.12
5.596,-0.125
5.598,-0.125
5.6,-0.12
5.602,-0.105
5.604,-0.09
5.606,-0.07
5.608,-0.045
5.61,-0.03
5.612,-0.015
5.614,-0.01
5.616,-0.005
5.618,-0.01
5.62,-0.02
5.622,-0.025
5.624,-0.035
5.626,-0.04
5.628,-0.04
5.63,-0.035
5.632,-0.035
5.634,-0.03
5.636,-0.025
5.638,-0.025
5.64,-0.03
5.642,-0.03
5.644,-0.035
5.646,-0.04
5.648,-0.045
5.65,-0.05
5.652,-0.05
5.654,-0.05
5.656,-0.05
5.658,-0.045
5.66,-0.045
5.662,-0.04
5.664,-0.04
5.666,-0.04
5.668,-0.045
5.67,-0.045
5.672,-0.05
5.674,-0.055
5.676,-0.06
5.678,-0.065
5.68,-0.065
5.682,-0.07
5.684,-0.065
5.686,-0.065
5.688,-0.06
5.69,-0.05
5.692,-0.04
5.694,-0.03
5.696,-0.015
5.698,0
5.7,0.015
5.702,0.025
5.704,0.03
5.706,0.03
5.708,0.03
5.71,0.02
5.712,0.01
5.714,0.005
5.716,-0.005
5.718,-0.005
5.72,0
5.722,0.005
5.724,0.015
5.726,0.03
5.728,0.04
5.73,0.05
5.732,0.055
5.734,0.065
5.736,0.075
5.738,0.085
5.74,0.095
5.742,0.11
5.744,0.125
5.746,0.135
5.748,0.14
5.75,0.14
5.752,0.135
5.754,0.125
5.756,0.115
5.758,0.11
5.76,0.105
5.762,0.11
5.764,0.12
5.766,0.135
5.768,0.15
5.77,0.165
5.772,0.175
5.774,0.185
5.776,0.19
5.778,0.195
5.78,0.2
5.782,0.21
5.784,0.22
5.786,0.235
5.788,0.25
5.79,0.265
5.792,0.275
5.794,0.28
5.796,0.28
5.798,0.275
5.8,0.27
5.802,0.26
5.804,0.255
5.806,0.25
5.808,0.24
5.81,0.23
5.812,0.215
5.814,0.2
5.816,0.18
5.818,0.155
5.82,0.13
5.822,0.11
5.824,0.095
5.826,0.08
5.828,0.075
5.83,0.07
5.832,0.065
5.834,0.06
5.836,0.055
5.838,0.045
5.84,0.04
5.842,0.03
5.844,0.02
5.846,0.015
5.848,0.005
5.85,0
5.852,-0.01
5.854,-0.02
5.856,-0.035
5.858,-0.055
5.86,-0.075
5.862,-0.09
5.864,-0.1
5.866,-0.105
5.868,-0.095
5.87,-0.075
5.872,-0.055
5.874,-0.03
5.876,-0.005
5.878,0.01
5.88,0.015
5.882,0.01
5.884,0
5.886,-0.015
5.888,-0.03
5.89,-0.04
5.892,-0.04
5.894,-0.04
5.896,-0.03
5.898,-0.02
5.9,-0.015
5.902,-0.015
5.904,-0.025
5.906,-0.035
5.908,-0.045
5.91,-0.06
5.912,-0.065
5.914,-0.065
5.916,-0.06
5.918,-0.045
5.92,-0.035
5.922,-0.025
5.924,-0.025
5.926,-0.03
5.928,-0.04
5.93,-0.055
5.932,-0.07
5.934,-0.085
5.936,-0.095
5.938,-0.1
5.94,-0.095
5.942,-0.095
5.944,-0.09
5.946,-0.085
5.948,-0.085
5.95,-0.085
5.952,-0.09
5.954,-0.09
5.956,-0.085
5.958,-0.075
5.96,-0.055
5.962,-0.035
5.964,-0.015
5.966,0.005
5.968,0.02
5.97,0.025
5.972,0.02
5.974,0.005
5.976,-0.01
5.978,-0.03
5.98,-0.045
5.982,-0.055
5.984,-0.055
5.986,-0.05
5.988,-0.04
5.99,-0.03
5.992,-0.02
5.994,-0.015
5.996,-0.015
5.998,-0.02
6,-0.025
6.002,-0.04
6.004,-0.05
6.006,-0.055
6.008,-0.06
6.01,-0.055
6.012,-0.05
6.014,-0.045
6.016,-0.035
6.018,-0.03
6.02,-0.03
6.022,-0.03
6.024,-0.035
6.026,-0.04
6.028,-0.045
6.03,-0.045
6.032,-0.045
6.034,-0.045
6.036,-0.04
6.038,-0.035
6.04,-0.03
6.042,-0.03
6.044,-0.03
6.046,-0.035
6.048,-0.04
6.05,-0.045
6.052,-0.05
6.054,-0.055
6.056,-0.05
6.058,-0.05
6.06,-0.045
6.062,-0.04
6.064,-0.035
6.066,-0.03
6.068,-0.02
6.07,-0.015
6.072,-0.01
6.074,-0.005
6.076,0
6.078,0
6.08,-0.01
6.082,-0.015
6.084,-0.03
6.086,-0.04
6.088,-0.05
6.09,-0.06
6.092,-0.06
6.094,-0.05
6.096,-0.04
6.098,-0.03
6.1,-0.015
6.102,-0.005
6.104,0
6.106,0
6.108,-0.01
6.11,-0.02
6.112,-0.035
6.114,-0.055
6.116,-0.07
6.118,-0.08
6.12,-0.09
6.122,-0.09
6.124,-0.09
6.126,-0.08
6.128,-0.07
6.13,-0.055
6.132,-0.035
6.134,-0.025
6.136,-0.015
6.138,-0.01
6.14,-0.015
6.142,-0.025
6.144,-0.04
6.146,-0.055
6.148,-0.07
6.15,-0.08
6.152,-0.085
6.154,-0.085
6.156,-0.075
6.158,-0.065
6.16,-0.055
6.162,-0.045
6.164,-0.03
6.166,-0.025
6.168,-0.015
6.17,-0.01
6.172,-0.005
6.174,0
6.176,0.005
6.178,0.005
6.18,0.005
6.182,0
6.184,-0.005
6.186,-0.01
6.188,-0.02
6.19,-0.025
6.192,-0.035
6.194,-0.04
6.196,-0.045
6.198,-0.05
6.2,-0.055
6.202,-0.06
6.204,-0.06
6.206,-0.065
6.208,-0.065
6.21,-0.06
6.212,-0.06
6.214,-0.055
6.216,-0.055
6.218,-0.05
6.22,-0.05
6.222,-0.055
6.224,-0.055
6.226,-0.06
6.228,-0.055
6.23,-0.055
6.232,-0.045
6.234,-0.035
6.236,-0.02
6.238,-0.01
6.24,-0.005
6.242,-0.005
6.244,-0.01
6.246,-0.02
6.248,-0.035
6.25,-0.045
6.252,-0.05
6.254,-0.05
6.256,-0.05
6.258,-0.04
6.26,-0.035
6.262,-0.03
6.264,-0.03
6.266,-0.035
6.268,-0.04
6.27,-0.045
6.272,-0.05
6.274,-0.05
6.276,-0.045
6.278,-0.035
6.28,-0.025
6.282,-0.015
6.284,-0.01
6.286,-0.015
6.288,-0.025
6.29,-0.04
6.292,-0.065
6.294,-0.085
6.296,-0.1
6.298,-0.105
6.3,-0.105
6.302,-0.1
6.304,-0.085
6.306,-0.07
6.308,-0.055
6.31,-0.04
6.312,-0.035
6.314,-0.03
6.316,-0.035
6.318,-0.04
6.32,-0.05
6.322,-0.055
6.324,-0.06
6.326,-0.065
6.328,-0.065
6.33,-0.065
6.332,-0.06
6.334,-0.05
6.336,-0.045
6.338,-0.03
6.34,-0.02
6.342,-0.005
6.344,0.005
6.346,0.01
6.348,0.015
6.35,0.01
6.352,0.005
6.354,-0.01
6.356,-0.025
6.358,-0.04
6.36,-0.05
6.362,-0.05
6.364,-0.05
6.366,-0.04
6.368,-0.025
6.37,-0.015
6.372,0
6.374,0.005
6.376,0.01
6.378,0.01
6.38,0.01
6.382,0.01
6.384,0.015
6.386,0.02
6.388,0.035
6.39,0.05
6.392,0.065
6.394,0.075
6.396,0.075
6.398,0.07
6.4,0.06
6.402,0.045
6.404,0.025
6.406,0.015
6.408,0.005
6.41,0.005
6.412,0.005
6.414,0.01
6.416,0.01
6.418,0.01
6.42,0.005
6.422,-0.005
6.424,-0.02
6.426,-0.04
6.428,-0.055
6.43,-0.065
6.432,-0.075
6.434,-0.08
6.436,-0.085
6.438,-0.08
6.44,-0.075
6.442,-0.07
6.444,-0.06
6.446,-0.05
6.448,-0.035
6.45,-0.02
6.452,-0.01
6.454,-0.005
6.456,-0.01
6.458,-0.02
6.46,-0.04
6.462,-0.06
6.464,-0.085
6.466,-0.105
6.468,-0.115
6.47,-0.115
6.472,-0.105
6.474,-0.09
6.476,-0.07
6.478,-0.055
6.48,-0.045
6.482,-0.04
6.484,-0.045
6.486,-0.05
6.488,-0.06
6.49,-0.07
6.492,-0.07
6.494,-0.065
6.496,-0.055
6.498,-0.045
6.5,-0.035
6.502,-0.03
6.504,-0.035
6.506,-0.04
6.508,-0.055
6.51,-0.065
6.512,-0.07
6.514,-0.07
6.516,-0.07
6.518,-0.06
6.52,-0.055
6.522,-0.05
6.524,-0.045
6.526,-0.04
6.528,-0.03
6.53,-0.01
6.532,0.025
6.534,0.075
6.536,0.15
6.538,0.245
6.54,0.35
6.542,0.455
6.544,0.55
6.546,0.63
6.548,0.68
6.55,0.7
6.552,0.69
6.554,0.65
6.556,0.585
6.558,0.505
6.56,0.415
6.562,0.315
6.564,0.22
6.566,0.13
6.568,0.045
6.57,-0.025
6.572,-0.08
6.574,-0.115
6.576,-0.135
6.578,-0.135
6.58,-0.125
6.582,-0.1
6.584,-0.075
6.586,-0.05
6.588,-0.035
6.59,-0.025
6.592,-0.03
6.594,-0.045
6.596,-0.06
6.598,-0.075
6.6,-0.085
6.602,-0.09
6.604,-0.08
6.606,-0.065
6.608,-0.05
6.61,-0.035
6.612,-0.025
6.614,-0.025
6.616,-0.04
6.618,-0.055
6.62,-0.075
6.622,-0.09
6.624,-0.1
6.626,-0.095
6.628,-0.085
6.63,-0.065
6.632,-0.045
6.634,-0.035
6.636,-0.03
6.638,-0.035
6.64,-0.055
6.642,-0.08
6.644,-0.105
6.646,-0.125
6.648,-0.135
6.65,-0.13
6.652,-0.11
6.654,-0.08
6.656,-0.05
6.658,-0.025
6.66,-0.005
6.662,0.005
6.664,0.005
6.666,-0.005
6.668,-0.015
6.67,-0.025
6.672,-0.03
6.674,-0.03
6.676,-0.02
6.678,-0.01
6.68,0.005
6.682,0.01
6.684,0.015
6.686,0.01
6.688,0
6.69,-0.015
6.692,-0.03
6.694,-0.035
6.696,-0.04
6.698,-0.035
6.7,-0.03
6.702,-0.02
6.704,-0.015
6.706,-0.005
6.708,0
6.71,0.01
6.712,0.015
6.714,0.015
6.716,0.02
6.718,0.02
6.72,0.02
6.722,0.015
6.724,0.01
6.726,0
6.728,-0.005
6.73,-0.01
6.732,-0.005
6.734,0.005
6.736,0.02
6.738,0.045
6.74,0.075
6.742,0.1
6.744,0.125
6.746,0.14
6.748,0.15
6.75,0.155
6.752,0.155
6.754,0.155
6.756,0.155
6.758,0.16
6.76,0.17
6.762,0.185
6.764,0.195
6.766,0.21
6.768,0.22
6.77,0.22
6.772,0.22
6.774,0.22
6.776,0.215
6.778,0.21
6.78,0.21
6.782,0.215
6.784,0.23
6.786,0.245
6.788,0.265
6.79,0.28
6.792,0.29
6.794,0.29
6.796,0.28
6.798,0.26
6.8,0.235
6.802,0.205
6.804,0.175
6.806,0.15
6.808,0.13
6.81,0.12
6.812,0.115
6.814,0.115
6.816,0.12
6.818,0.12
6.82,0.12
6.822,0.12
6.824,0.12
6.826,0.12
6.828,0.12
6.83,0.125
6.832,0.13
6.834,0.135
6.836,0.135
6.838,0.125
6.84,0.11
6.842,0.085
6.844,0.055
6.846,0.02
6.848,-0.01
6.85,-0.03
6.852,-0.045
6.854,-0.05
6.856,-0.045
6.858,-0.04
6.86,-0.03
6.862,-0.025
6.864,-0.02
6.866,-0.03
6.868,-0.04
6.87,-0.05
6.872,-0.065
6.874,-0.075
6.876,-0.08
6.878,-0.08
6.88,-0.08
6.882,-0.08
6.884,-0.08
6.886,-0.08
6.888,-0.085
6.89,-0.085
6.892,-0.09
6.894,-0.09
6.896,-0.08
6.898,-0.07
6.9,-0.06
6.902,-0.045
6.904,-0.03
6.906,-0.02
6.908,-0.01
6.91,-0.005
6.912,0
6.914,0
6.916,0
6.918,-0.005
6.92,-0.01
6.922,-0.02
6.924,-0.035
6.926,-0.05
6.928,-0.065
6.93,-0.08
6.932,-0.085
6.934,-0.085
6.936,-0.075
6.938,-0.06
6.94,-0.045
6.942,-0.025
6.944,-0.015
6.946,-0.015
6.948,-0.02
6.95,-0.04
6.952,-0.06
6.954,-0.085
6.956,-0.1
6.958,-0.11
6.96,-0.105
6.962,-0.095
6.964,-0.075
6.966,-0.06
6.968,-0.05
6.97,-0.05
6.972,-0.06
6.974,-0.075
6.976,-0.095
6.978,-0.11
6.98,-0.12
6.982,-0.12
6.984,-0.105
6.986,-0.08
6.988,-0.055
6.99,-0.025
6.992,0
6.994,0.015
6.996,0.02
6.998,0.02
7,0.01
7.002,0
7.004,-0.01
7.006,-0.015
7.008,-0.02
7.01,-0.015
7.012,-0.015
7.014,-0.01
7.016,-0.015
7.018,-0.02
7.02,-0.03
7.022,-0.04
7.024,-0.05
7.026,-0.06
7.028,-0.065
7.03,-0.06
7.032,-0.05
7.034,-0.04
7.036,-0.03
7.038,-0.025
7.04,-0.02
7.042,-0.02
7.044,-0.025
7.046,-0.035
7.048,-0.045
7.05,-0.055
7.052,-0.06
7.054,-0.065
7.056,-0.065
7.058,-0.06
7.06,-0.06
7.062,-0.055
7.064,-0.05
7.066,-0.05
7.068,-0.055
7.07,-0.055
7.072,-0.06
7.074,-0.06
7.076,-0.065
7.078,-0.065
7.08,-0.065
7.082,-0.065
7.084,-0.065
7.086,-0.06
7.088,-0.05
7.09,-0.045
7.092,-0.035
7.094,-0.03
7.096,-0.025
7.098,-0.02
7.1,-0.015
7.102,-0.02
7.104,-0.02
7.106,-0.025
7.108,-0.035
7.11,-0.04
7.112,-0.045
7.114,-0.05
7.116,-0.055
7.118,-0.055
7.12,-0.055
7.122,-0.055
7.124,-0.05
7.126,-0.05
7.128,-0.045
7.13,-0.045
7.132,-0.05
7.134,-0.055
7.136,-0.065
7.138,-0.075
7.14,-0.085
7.142,-0.095
7.144,-0.1
7.146,-0.095
7.148,-0.08
7.15,-0.06
7.152,-0.035
7.154,-0.005
7.156,0.02
7.158,0.04
7.16,0.045
7.162,0.035
7.164,0.015
7.166,-0.015
7.168,-0.045
7.17,-0.075
7.172,-0.095
7.174,-0.1
7.176,-0.095
7.178,-0.08
7.18,-0.055
7.182,-0.03
7.184,-0.01
7.186,0.005
7.188,0.01
7.19,0.005
7.192,-0.005
7.194,-0.02
7.196,-0.035
7.198,-0.05
7.2,-0.065
7.202,-0.075
7.204,-0.085
7.206,-0.095
7.208,-0.1
7.21,-0.105
7.212,-0.11
7.214,-0.105
7.216,-0.095
7.218,-0.085
7.22,-0.07
7.222,-0.055
7.224,-0.045
7.226,-0.04
7.228,-0.045
7.23,-0.06
7.232,-0.075
7.234,-0.09
7.236,-0.095
7.238,-0.1
7.24,-0.09
7.242,-0.075
7.244,-0.06
7.246,-0.04
7.248,-0.025
7.25,-0.02
7.252,-0.02
7.254,-0.03
7.256,-0.04
7.258,-0.055
7.26,-0.06
7.262,-0.06
7.264,-0.055
7.266,-0.05
7.268,-0.04
7.27,-0.03
7.272,-0.03
7.274,-0.03
7.276,-0.035
7.278,-0.035
7.28,-0.04
7.282,-0.035
7.284,-0.03
7.286,-0.015
7.288,0
7.29,0.015
7.292,0.03
7.294,0.04
7.296,0.05
7.298,0.06
7.3,0.065
7.302,0.07
7.304,0.075
7.306,0.08
7.308,0.085
7.31,0.085
7.312,0.08
7.314,0.065
7.316,0.05
7.318,0.03
7.32,0.01
7.322,-0.005
7.324,-0.02
7.326,-0.03
7.328,-0.035
7.33,-0.035
7.332,-0.035
7.334,-0.035
7.336,-0.035
7.338,-0.035
7.34,-0.035
7.342,-0.035
7.344,-0.035
7.346,-0.03
7.348,-0.03
7.35,-0.03
7.352,-0.035
7.354,-0.04
7.356,-0.05
7.358,-0.065
7.36,-0.075
7.362,-0.08
7.364,-0.08
7.366,-0.075
7.368,-0.065
7.37,-0.055
7.372,-0.04
7.374,-0.03
7.376,-0.025
7.378,-0.025
7.38,-0.025
7.382,-0.03
7.384,-0.04
7.386,-0.05
7.388,-0.06
7.39,-0.07
7.392,-0.08
7.394,-0.09
7.396,-0.1
7.398,-0.105
7.4,-0.11
7.402,-0.11
7.404,-0.1
7.406,-0.09
7.408,-0.075
7.41,-0.06
7.412,-0.045
7.414,-0.04
7.416,-0.04
7.418,-0.05
7.42,-0.06
7.422,-0.075
7.424,-0.085
7.426,-0.09
7.428,-0.085
7.43,-0.075
7.432,-0.055
7.434,-0.04
7.436,-0.025
7.438,-0.015
7.44,-0.015
7.442,-0.02
7.444,-0.03
7.446,-0.035
7.448,-0.03
7.45,-0.01
7.452,0.03
7.454,0.09
7.456,0.17
7.458,0.27
7.46,0.375
7.462,0.48
7.464,0.58
7.466,0.66
7.468,0.72
7.47,0.745
7.472,0.745
7.474,0.71
7.476,0.645
7.478,0.56
7.48,0.46
7.482,0.355
7.484,0.245
7.486,0.15
7.488,0.07
7.49,0.005
7.492,-0.04
7.494,-0.07
7.496,-0.085
7.498,-0.095
7.5,-0.095
7.502,-0.1
7.504,-0.1
7.506,-0.105
7.508,-0.105
7.51,-0.105
7.512,-0.105
7.514,-0.1
7.516,-0.095
7.518,-0.095
7.52,-0.09
7.522,-0.085
7.524,-0.09
7.526,-0.09
7.528,-0.09
7.53,-0.09
7.532,-0.09
7.534,-0.08
7.536,-0.075
7.538,-0.065
7.54,-0.05
7.542,-0.04
7.544,-0.035
7.546,-0.035
7.548,-0.035
7.55,-0.04
7.552,-0.05
7.554,-0.055
7.556,-0.06
7.558,-0.065
7.56,-0.065
7.562,-0.06
7.564,-0.055
7.566,-0.05
7.568,-0.045
7.57,-0.035
7.572,-0.03
7.574,-0.025
7.576,-0.02
7.578,-0.02
7.58,-0.025
7.582,-0.035
7.584,-0.045
7.586,-0.055
7.588,-0.07
7.59,-0.08
7.592,-0.08
7.594,-0.08
7.596,-0.075
7.598,-0.06
7.6,-0.05
7.602,-0.04
7.604,-0.03
7.606,-0.03
7.608,-0.03
7.61,-0.04
7.612,-0.05
7.614,-0.06
7.616,-0.07
7.618,-0.065
7.62,-0.06
7.622,-0.05
7.624,-0.035
7.626,-0.02
7.628,-0.015
7.63,-0.01
7.632,-0.01
7.634,-0.015
7.636,-0.02
7.638,-0.02
7.64,-0.01
7.642,0
7.644,0.02
7.646,0.045
7.648,0.065
7.65,0.085
7.652,0.095
7.654,0.09
7.656,0.085
7.658,0.07
7.66,0.055
7.662,0.045
7.664,0.045
7.666,0.06
7.668,0.08
7.67,0.11
7.672,0.14
7.674,0.17
7.676,0.19
7.678,0.2
7.68,0.2
7.682,0.19
7.684,0.18
7.686,0.165
7.688,0.16
7.69,0.16
7.692,0.17
7.694,0.185
7.696,0.205
7.698,0.225
7.7,0.25
7.702,0.265
7.704,0.28
7.706,0.285
7.708,0.285
7.71,0.275
7.712,0.265
7.714,0.25
7.716,0.235
7.718,0.22
7.72,0.205
7.722,0.2
7.724,0.195
7.726,0.2
7.728,0.2
7.73,0.2
7.732,0.195
7.734,0.185
7.736,0.16
7.738,0.135
7.74,0.1
7.742,0.07
7.744,0.045
7.746,0.03
7.748,0.025
7.75,0.03
7.752,0.045
7.754,0.065
7.756,0.08
7.758,0.09
7.76,0.095
7.762,0.085
7.764,0.065
7.766,0.045
7.768,0.02
7.77,0
7.772,-0.015
7.774,-0.02
7.776,-0.015
7.778,-0.01
7.78,0
7.782,0.01
7.784,0.01
7.786,0.01
7.788,0
7.79,-0.01
7.792,-0.025
7.794,-0.04
7.796,-0.045
7.798,-0.05
7.8,-0.055
7.802,-0.05
7.804,-0.05
7.806,-0.045
7.808,-0.045
7.81,-0.045
7.812,-0.05
7.814,-0.055
7.816,-0.06
7.818,-0.065
7.82,-0.065
7.822,-0.065
7.824,-0.065
7.826,-0.06
7.828,-0.06
7.83,-0.06
7.832,-0.065
7.834,-0.07
7.836,-0.08
7.838,-0.085
7.84,-0.095
7.842,-0.095
7.844,-0.095
7.846,-0.09
7.848,-0.085
7.85,-0.08
7.852,-0.07
7.854,-0.065
7.856,-0.055
7.858,-0.05
7.86,-0.04
7.862,-0.03
7.864,-0.02
7.866,-0.01
7.868,-0.005
7.87,0
7.872,-0.005
7.874,-0.01
7.876,-0.02
7.878,-0.03
7.88,-0.04
7.882,-0.05
7.884,-0.055
7.886,-0.055
7.888,-0.05
7.89,-0.045
7.892,-0.04
7.894,-0.04
7.896,-0.04
7.898,-0.045
7.9,-0.05
7.902,-0.06
7.904,-0.06
7.906,-0.06
7.908,-0.055
7.91,-0.045
7.912,-0.04
7.914,-0.035
7.916,-0.035
7.918,-0.045
7.92,-0.055
7.922,-0.075
7.924,-0.09
7.926,-0.105
7.928,-0.11
7.93,-0.105
7.932,-0.09
7.934,-0.07
7.936,-0.05
7.938,-0.03
7.94,-0.02
7.942,-0.02
7.944,-0.025
7.946,-0.04
7.948,-0.055
7.95,-0.065
7.952,-0.075
7.954,-0.07
7.956,-0.06
7.958,-0.045
7.96,-0.025
7.962,-0.01
7.964,0
7.966,0
7.968,-0.005
7.97,-0.015
7.972,-0.025
7.974,-0.03
7.976,-0.03
7.978,-0.03
7.98,-0.025
7.982,-0.015
7.984,-0.01
7.986,-0.01
7.988,-0.015
7.99,-0.02
7.992,-0.03
7.994,-0.04
7.996,-0.045
7.998,-0.05
8,-0.05
8.002,-0.05
8.004,-0.05
8.006,-0.05
8.008,-0.05
8.01,-0.05
8.012,-0.05
8.014,-0.05
8.016,-0.05
8.018,-0.05
8.02,-0.045
8.022,-0.045
8.024,-0.05
8.026,-0.055
8.028,-0.06
8.03,-0.065
8.032,-0.07
8.034,-0.075
8.036,-0.07
8.038,-0.065
8.04,-0.06
8.042,-0.055
8.044,-0.055
8.046,-0.065
8.048,-0.075
8.05,-0.09
8.052,-0.1
8.054,-0.11
8.056,-0.11
8.058,-0.095
8.06,-0.075
8.062,-0.05
8.064,-0.025
8.066,0
8.068,0.01
8.07,0.015
8.072,0.01
8.074,0
8.076,-0.015
8.078,-0.03
8.08,-0.04
8.082,-0.045
8.084,-0.045
8.086,-0.045
8.088,-0.05
8.09,-0.05
8.092,-0.055
8.094,-0.065
8.096,-0.075
8.098,-0.08
8.1,-0.08
8.102,-0.08
8.104,-0.075
8.106,-0.065
8.108,-0.06
8.11,-0.055
8.112,-0.055
8.114,-0.06
8.116,-0.07
8.118,-0.08
8.12,-0.09
8.122,-0.095
8.124,-0.1
8.126,-0.095
8.128,-0.09
8.13,-0.075
8.132,-0.06
8.134,-0.045
8.136,-0.03
8.138,-0.02
8.14,-0.01
8.142,-0.005
8.144,-0.01
8.146,-0.015
8.148,-0.02
8.15,-0.03
8.152,-0.045
8.154,-0.055
8.156,-0.06
8.158,-0.065
8.16,-0.065
8.162,-0.065
8.164,-0.06
8.166,-0.05
8.168,-0.045
8.17,-0.03
8.172,-0.015
8.174,0
8.176,0.025
8.178,0.045
8.18,0.07
8.182,0.09
8.184,0.105
8.186,0.11
8.188,0.105
8.19,0.09
8.192,0.07
8.194,0.045
8.196,0.025
8.198,0.005
8.2,-0.01
8.202,-0.015
8.204,-0.015
8.206,-0.01
8.208,-0.005
8.21,0.005
8.212,0.01
8.214,0.01
8.216,0.01
8.218,0.005
8.22,0
8.222,-0.01
8.224,-0.015
8.226,-0.02
8.228,-0.03
8.23,-0.035
8.232,-0.04
8.234,-0.045
8.236,-0.055
8.238,-0.065
8.24,-0.07
8.242,-0.08
8.244,-0.09
8.246,-0.1
8.248,-0.11
8.25,-0.115
8.252,-0.115
8.254,-0.115
8.256,-0.105
8.258,-0.1
8.26,-0.09
8.262,-0.08
8.264,-0.07
8.266,-0.07
8.268,-0.065
8.27,-0.07
8.272,-0.07
8.274,-0.075
8.276,-0.075
8.278,-0.075
8.28,-0.075
8.282,-0.075
8.284,-0.075
8.286,-0.07
8.288,-0.07
8.29,-0.065
8.292,-0.06
8.294,-0.06
8.296,-0.055
8.298,-0.055
8.3,-0.06
8.302,-0.07
8.304,-0.08
8.306,-0.095
8.308,-0.105
8.31,-0.115
8.312,-0.115
8.314,-0.11
8.316,-0.095
8.318,-0.075
8.32,-0.055
8.322,-0.035
8.324,-0.025
8.326,-0.02
8.328,-0.025
8.33,-0.03
8.332,-0.025
8.334,-0.005
8.336,0.035
8.338,0.1
8.34,0.19
8.342,0.3
8.344,0.415
8.346,0.53
8.348,0.625
8.35,0.7
8.352,0.74
8.354,0.745
8.356,0.72
8.358,0.67
8.36,0.595
8.362,0.505
8.364,0.405
8.366,0.305
8.368,0.2
8.37,0.105
8.372,0.02
8.374,-0.05
8.376,-0.1
8.378,-0.135
8.38,-0.145
8.382,-0.14
8.384,-0.125
8.386,-0.105
8.388,-0.08
8.39,-0.06
8.392,-0.05
8.394,-0.045
8.396,-0.045
8.398,-0.05
8.4,-0.06
8.402,-0.065
8.404,-0.065
8.406,-0.065
8.408,-0.065
8.41,-0.06
8.412,-0.06
8.414,-0.06
8.416,-0.06
8.418,-0.065
8.42,-0.07
8.422,-0.075
8.424,-0.08
8.426,-0.085
8.428,-0.085
8.43,-0.085
8.432,-0.08
8.434,-0.075
8.436,-0.065
8.438,-0.05
8.44,-0.035
8.442,-0.025
8.444,-0.02
8.446,-0.015
8.448,-0.02
8.45,-0.03
8.452,-0.05
8.454,-0.065
8.456,-0.08
8.458,-0.095
8.46,-0.1
8.462,-0.1
8.464,-0.09
8.466,-0.08
8.468,-0.07
8.47,-0.06
8.472,-0.055
8.474,-0.05
8.476,-0.05
8.478,-0.05
8.48,-0.055
8.482,-0.055
8.484,-0.05
8.486,-0.05
8.488,-0.045
8.49,-0.04
8.492,-0.035
8.494,-0.025
8.496,-0.02
8.498,-0.01
8.5,0
8.502,0.01
8.504,0.02
8.506,0.025
8.508,0.03
8.51,0.03
8.512,0.02
8.514,0.015
8.516,0.005
8.518,-0.005
8.52,-0.005
8.522,-0.005
8.524,0.005
8.526,0.02
8.528,0.035
8.53,0.05
8.532,0.055
8.534,0.06
8.536,0.05
8.538,0.04
8.54,0.025
8.542,0.015
8.544,0.01
8.546,0.015
8.548,0.03
8.55,0.05
8.552,0.075
8.554,0.105
8.556,0.13
8.558,0.155
8.56,0.165
8.562,0.175
8.564,0.175
8.566,0.17
8.568,0.165
8.57,0.165
8.572,0.17
8.574,0.175
8.576,0.19
8.578,0.21
8.58,0.225
8.582,0.245
8.584,0.26
8.586,0.27
8.588,0.28
8.59,0.28
8.592,0.275
8.594,0.27
8.596,0.26
8.598,0.25
8.6,0.24
8.602,0.23
8.604,0.225
8.606,0.22
8.608,0.215
8.61,0.21
8.612,0.205
8.614,0.2
8.616,0.19
8.618,0.175
8.62,0.155
8.622,0.135
8.624,0.11
8.626,0.09
8.628,0.075
8.63,0.06
8.632,0.055
8.634,0.05
8.636,0.045
8.638,0.045
8.64,0.04
8.642,0.035
8.644,0.025
8.646,0.015
8.648,0.005
8.65,-0.005
8.652,-0.01
8.654,-0.015
8.656,-0.02
8.658,-0.02
8.66,-0.02
8.662,-0.02
8.664,-0.02
8.666,-0.025
8.668,-0.025
8.67,-0.03
8.672,-0.03
8.674,-0.03
8.676,-0.025
8.678,-0.025
8.68,-0.025
8.682,-0.025
8.684,-0.03
8.686,-0.035
8.688,-0.045
8.69,-0.05
8.692,-0.05
8.694,-0.055
8.696,-0.05
8.698,-0.05
8.7,-0.045
8.702,-0.045
8.704,-0.05
8.706,-0.06
8.708,-0.07
8.71,-0.085
8.712,-0.1
8.714,-0.11
8.716,-0.115
8.718,-0.11
8.72,-0.095
8.722,-0.08
8.724,-0.06
8.726,-0.045
8.728,-0.03
8.73,-0.02
8.732,-0.015
8.734,-0.02
8.736,-0.025
8.738,-0.035
8.74,-0.045
8.742,-0.055
8.744,-0.065
8.746,-0.07
8.748,-0.075
8.75,-0.075
8.752,-0.07
8.754,-0.065
8.756,-0.055
8.758,-0.05
8.76,-0.045
8.762,-0.04
8.764,-0.045
8.766,-0.05
8.768,-0.055
8.77,-0.06
8.772,-0.065
8.774,-0.065
8.776,-0.06
8.778,-0.055
8.78,-0.045
8.782,-0.035
8.784,-0.03
8.786,-0.03
8.788,-0.035
8.79,-0.045
8.792,-0.055
8.794,-0.065
8.796,-0.075
8.798,-0.075
8.8,-0.07
8.802,-0.06
8.804,-0.045
8.806,-0.035
8.808,-0.02
8.81,-0.01
8.812,-0.01
8.814,-0.01
8.816,-0.02
8.818,-0.03
8.82,-0.04
8.822,-0.045
8.824,-0.05
8.826,-0.05
8.828,-0.045
8.83,-0.04
8.832,-0.03
8.834,-0.02
8.836,-0.01
8.838,-0.005
8.84,-0.005
8.842,-0.01
8.844,-0.015
8.846,-0.02
8.848,-0.025
8.85,-0.03
8.852,-0.035
8.854,-0.03
8.856,-0.03
8.858,-0.025
8.86,-0.025
8.862,-0.025
8.864,-0.03
8.866,-0.035
8.868,-0.045
8.87,-0.05
8.872,-0.055
8.874,-0.055
8.876,-0.05
8.878,-0.04
8.88,-0.03
8.882,-0.025
8.884,-0.025
8.886,-0.03
8.888,-0.04
8.89,-0.055
8.892,-0.07
8.894,-0.085
8.896,-0.095
8.898,-0.095
8.9,-0.09
8.902,-0.075
8.904,-0.055
8.906,-0.035
8.908,-0.02
8.91,-0.015
8.912,-0.01
8.914,-0.02
8.916,-0.03
8.918,-0.04
8.92,-0.05
8.922,-0.06
8.924,-0.06
8.926,-0.06
8.928,-0.055
8.93,-0.045
8.932,-0.035
8.934,-0.03
8.936,-0.025
8.938,-0.02
8.94,-0.02
8.942,-0.025
8.944,-0.025
8.946,-0.025
8.948,-0.03
8.95,-0.03
8.952,-0.03
8.954,-0.035
8.956,-0.04
8.958,-0.05
8.96,-0.06
8.962,-0.07
8.964,-0.08
8.966,-0.085
8.968,-0.085
8.97,-0.08
8.972,-0.065
8.974,-0.055
8.976,-0.04
8.978,-0.03
8.98,-0.025
8.982,-0.025
8.984,-0.04
8.986,-0.055
8.988,-0.075
8.99,-0.095
8.992,-0.11
8.994,-0.115
8.996,-0.115
8.998,-0.105
9,-0.085
9.002,-0.07
9.004,-0.05
9.006,-0.035
9.008,-0.025
9.01,-0.02
9.012,-0.02
9.014,-0.025
9.016,-0.035
9.018,-0.04
9.02,-0.045
9.022,-0.05
9.024,-0.045
9.026,-0.035
9.028,-0.025
9.03,-0.01
9.032,0.005
9.034,0.025
9.036,0.035
9.038,0.045
9.04,0.055
9.042,0.055
9.044,0.06
9.046,0.055
9.048,0.055
9.05,0.055
9.052,0.055
9.054,0.055
9.056,0.05
9.058,0.05
9.06,0.05
9.062,0.045
9.064,0.04
9.066,0.04
9.068,0.04
9.07,0.04
9.072,0.045
9.074,0.045
9.076,0.04
9.078,0.03
9.08,0.015
9.082,-0.005
9.084,-0.03
9.086,-0.055
9.088,-0.08
9.09,-0.1
9.092,-0.11
9.094,-0.115
9.096,-0.11
9.098,-0.1
9.1,-0.09
9.102,-0.08
9.104,-0.07
9.106,-0.065
9.108,-0.065
9.11,-0.07
9.112,-0.075
9.114,-0.075
9.116,-0.08
9.118,-0.075
9.12,-0.07
9.122,-0.065
9.124,-0.06
9.126,-0.055
9.128,-0.05
9.13,-0.055
9.132,-0.06
9.134,-0.07
9.136,-0.085
9.138,-0.1
9.14,-0.11
9.142,-0.12
9.144,-0.125
9.146,-0.12
9.148,-0.11
9.15,-0.095
9.152,-0.075
9.154,-0.055
9.156,-0.045
9.158,-0.035
9.16,-0.04
9.162,-0.05
9.164,-0.065
9.166,-0.08
9.168,-0.095
9.17,-0.1
9.172,-0.095
9.174,-0.08
9.176,-0.055
9.178,-0.03
9.18,-0.005
9.182,0.015
9.184,0.02
9.186,0.015
9.188,0.005
9.19,-0.01
9.192,-0.02
9.194,-0.015
9.196,0.01
9.198,0.06
9.2,0.13
9.202,0.215
9.204,0.31
9.206,0.41
9.208,0.495
9.21,0.565
9.212,0.605
9.214,0.615
9.216,0.595
9.218,0.545
9.22,0.47
9.222,0.375
9.224,0.275
9.226,0.17
9.228,0.07
9.23,-0.01
9.232,-0.075
9.234,-0.12
9.236,-0.145
9.238,-0.15
9.24,-0.14
9.242,-0.12
9.244,-0.1
9.246,-0.075
9.248,-0.055
9.25,-0.045
9.252,-0.04
9.254,-0.04
9.256,-0.045
9.258,-0.055
9.26,-0.065
9.262,-0.07
9.264,-0.075
9.266,-0.08
9.268,-0.075
9.27,-0.065
9.272,-0.055
9.274,-0.045
9.276,-0.04
9.278,-0.04
9.28,-0.045
9.282,-0.055
9.284,-0.075
9.286,-0.1
9.288,-0.12
9.29,-0.14
9.292,-0.15
9.294,-0.15
9.296,-0.135
9.298,-0.11
9.3,-0.08
9.302,-0.05
9.304,-0.025
9.306,-0.005
9.308,0.005
9.31,0
9.312,-0.01
9.314,-0.025
9.316,-0.04
9.318,-0.055
9.32,-0.065
9.322,-0.07
9.324,-0.07
9.326,-0.065
9.328,-0.06
9.33,-0.055
9.332,-0.05
9.334,-0.045
9.336,-0.04
9.338,-0.035
9.34,-0.03
9.342,-0.025
9.344,-0.02
9.346,-0.015
9.348,-0.015
9.35,-0.015
9.352,-0.02
9.354,-0.02
9.356,-0.02
9.358,-0.015
9.36,-0.01
9.362,0
9.364,0.01
9.366,0.02
9.368,0.03
9.37,0.03
9.372,0.03
9.374,0.025
9.376,0.015
9.378,0.005
9.38,-0.005
9.382,-0.015
9.384,-0.02
9.386,-0.015
9.388,-0.015
9.39,-0.005
9.392,0.005
9.394,0.015
9.396,0.025
9.398,0.04
9.4,0.05
9.402,0.065
9.404,0.08
9.406,0.095
9.408,0.11
9.41,0.12
9.412,0.13
9.414,0.14
9.416,0.145
9.418,0.15
9.42,0.155
9.422,0.165
9.424,0.17
9.426,0.175
9.428,0.185
9.43,0.195
9.432,0.205
9.434,0.215
9.436,0.22
9.438,0.23
9.44,0.24
9.442,0.245
9.444,0.25
9.446,0.255
9.448,0.26
9.45,0.265
9.452,0.27
9.454,0.275
9.456,0.28
9.458,0.28
9.46,0.28
9.462,0.28
9.464,0.27
9.466,0.255
9.468,0.235
9.47,0.21
9.472,0.19
9.474,0.165
9.476,0.15
9.478,0.14
9.48,0.135
9.482,0.14
9.484,0.145
9.486,0.145
9.488,0.145
9.49,0.135
9.492,0.115
9.494,0.085
9.496,0.055
9.498,0.02
9.5,-0.005
9.502,-0.025
9.504,-0.035
9.506,-0.03
9.508,-0.015
9.51,0
9.512,0.015
9.514,0.025
9.516,0.03
9.518,0.02
9.52,0.005
9.522,-0.015
9.524,-0.04
9.526,-0.06
9.528,-0.07
9.53,-0.075
9.532,-0.07
9.534,-0.06
9.536,-0.045
9.538,-0.035
9.54,-0.025
9.542,-0.02
9.544,-0.025
9.546,-0.03
9.548,-0.04
9.55,-0.05
9.552,-0.065
9.554,-0.075
9.556,-0.085
9.558,-0.09
9.56,-0.095
9.562,-0.1
9.564,-0.1
9.566,-0.095
9.568,-0.09
9.57,-0.08
9.572,-0.065
9.574,-0.055
9.576,-0.045
9.578,-0.035
9.58,-0.03
9.582,-0.03
9.584,-0.04
9.586,-0.05
9.588,-0.065
9.59,-0.075
9.592,-0.085
9.594,-0.085
9.596,-0.085
9.598,-0.075
9.6,-0.065
9.602,-0.05
9.604,-0.045
9.606,-0.04
9.608,-0.04
9.61,-0.045
9.612,-0.05
9.614,-0.06
9.616,-0.065
9.618,-0.065
9.62,-0.065
9.622,-0.065
9.624,-0.06
9.626,-0.06
9.628,-0.065
9.63,-0.07
9.632,-0.075
9.634,-0.08
9.636,-0.085
9.638,-0.085
9.64,-0.08
9.642,-0.07
9.644,-0.055
9.646,-0.045
9.648,-0.035
9.65,-0.035
9.652,-0.035
9.654,-0.045
9.656,-0.055
9.658,-0.07
9.66,-0.08
9.662,-0.085
9.664,-0.09
9.666,-0.085
9.668,-0.08
9.67,-0.075
9.672,-0.065
9.674,-0.055
9.676,-0.045
9.678,-0.035
9.68,-0.03
9.682,-0.02
9.684,-0.01
9.686,-0.005
9.688,0.005
9.69,0.005
9.692,0.01
9.694,0.005
9.696,0
9.698,-0.005
9.7,-0.015
9.702,-0.025
9.704,-0.04
9.706,-0.045
9.708,-0.055
9.71,-0.06
9.712,-0.06
9.714,-0.06
9.716,-0.06
9.718,-0.06
9.72,-0.06
9.722,-0.06
9.724,-0.065
9.726,-0.07
9.728,-0.075
9.73,-0.085
9.732,-0.09
9.734,-0.095
9.736,-0.095
9.738,-0.095
9.74,-0.09
9.742,-0.08
9.744,-0.075
9.746,-0.065
9.748,-0.055
9.75,-0.05
9.752,-0.05
9.754,-0.05
9.756,-0.05
9.758,-0.05
9.76,-0.05
9.762,-0.05
9.764,-0.05
9.766,-0.045
9.768,-0.04
9.77,-0.035
9.772,-0.03
9.774,-0.025
9.776,-0.025
9.778,-0.03
9.78,-0.035
9.782,-0.035
9.784,-0.04
9.786,-0.04
9.788,-0.035
9.79,-0.035
9.792,-0.03
9.794,-0.025
9.796,-0.025
9.798,-0.03
9.8,-0.04
9.802,-0.055
9.804,-0.07
9.806,-0.085
9.808,-0.1
9.81,-0.105
9.812,-0.105
9.814,-0.1
9.816,-0.095
9.818,-0.08
9.82,-0.065
9.822,-0.05
9.824,-0.03
9.826,-0.015
9.828,0
9.83,0.015
9.832,0.025
9.834,0.035
9.836,0.035
9.838,0.035
9.84,0.025
9.842,0.01
9.844,-0.01
9.846,-0.025
9.848,-0.03
9.85,-0.03
9.852,-0.02
9.854,0
9.856,0.025
9.858,0.055
9.86,0.075
9.862,0.09
9.864,0.095
9.866,0.09
9.868,0.07
9.87,0.045
9.872,0.015
9.874,-0.01
9.876,-0.03
9.878,-0.04
9.88,-0.04
9.882,-0.035
9.884,-0.03
9.886,-0.03
9.888,-0.03
9.89,-0.035
9.892,-0.05
9.894,-0.065
9.896,-0.085
9.898,-0.1
9.9,-0.115
9.902,-0.12
9.904,-0.115
9.906,-0.105
9.908,-0.09
9.91,-0.075
9.912,-0.06
9.914,-0.05
9.916,-0.045
9.918,-0.05
9.92,-0.065
9.922,-0.085
9.924,-0.105
9.926,-0.13
9.928,-0.145
9.93,-0.15
9.932,-0.15
9.934,-0.135
9.936,-0.115
9.938,-0.09
9.94,-0.065
9.942,-0.04
9.944,-0.03
9.946,-0.025
9.948,-0.025
9.95,-0.035
9.952,-0.05
9.954,-0.06
9.956,-0.07
9.958,-0.075
9.96,-0.075
9.962,-0.075
9.964,-0.07
9.966,-0.065
9.968,-0.065
9.97,-0.065
9.972,-0.065
9.974,-0.07
9.976,-0.07
9.978,-0.065
9.98,-0.055
9.982,-0.045
9.984,-0.035
9.986,-0.025
9.988,-0.02
9.99,-0.01
9.992,0
9.994,0.02
9.996,0.055
9.998,0.105
