0,0.01
0.002,-0.03
0.004,-0.05
0.006,-0.065
0.008,-0.07
0.01,-0.06
0.012,-0.045
0.014,-0.03
0.016,-0.015
0.018,-0.015
0.02,-0.015
0.022,-0.025
0.024,-0.03
0.026,-0.035
0.028,-0.03
0.03,-0.01
0.032,0.01
0.034,0.035
0.036,0.06
0.038,0.075
0.04,0.075
0.042,0.07
0.044,0.055
0.046,0.04
0.048,0.025
0.05,0.02
0.052,0.02
0.054,0.03
0.056,0.045
0.058,0.06
0.06,0.075
0.062,0.08
0.064,0.08
0.066,0.08
0.068,0.07
0.07,0.06
0.072,0.06
0.074,0.06
0.076,0.065
0.078,0.075
0.08,0.09
0.082,0.1
0.084,0.11
0.086,0.12
0.088,0.125
0.09,0.125
0.092,0.125
0.094,0.12
0.096,0.115
0.098,0.11
0.1,0.105
0.102,0.1
0.104,0.095
0.106,0.095
0.108,0.1
0.11,0.11
0.112,0.12
0.114,0.13
0.116,0.145
0.118,0.15
0.12,0.155
0.122,0.15
0.124,0.14
0.126,0.13
0.128,0.11
0.13,0.095
0.132,0.08
0.134,0.07
0.136,0.065
0.138,0.06
0.14,0.06
0.142,0.06
0.144,0.06
0.146,0.055
0.148,0.055
0.15,0.05
0.152,0.045
0.154,0.04
0.156,0.035
0.158,0.025
0.16,0.02
0.162,0.015
0.164,0.01
0.166,0
0.168,-0.005
0.17,-0.01
0.172,-0.015
0.174,-0.02
0.176,-0.03
0.178,-0.035
0.18,-0.045
0.182,-0.06
0.184,-0.07
0.186,-0.075
0.188,-0.08
0.19,-0.08
0.192,-0.07
0.194,-0.06
0.196,-0.04
0.198,-0.02
0.2,0
0.202,0.015
0.204,0.025
0.206,0.025
0.208,0.015
0.21,0.005
0.212,-0.015
0.214,-0.03
0.216,-0.045
0.218,-0.055
0.22,-0.06
0.222,-0.06
0.224,-0.055
0.226,-0.05
0.228,-0.04
0.23,-0.03
0.232,-0.025
0.234,-0.02
0.236,-0.02
0.238,-0.025
0.24,-0.03
0.242,-0.035
0.244,-0.045
0.246,-0.05
0.248,-0.055
0.25,-0.06
0.252,-0.065
0.254,-0.07
0.256,-0.07
0.258,-0.065
0.26,-0.06
0.262,-0.05
0.264,-0.035
0.266,-0.02
0.268,-0.005
0.27,0.005
0.272,0.015
0.274,0.01
0.276,0.005
0.278,-0.01
0.28,-0.025
0.282,-0.04
0.284,-0.05
0.286,-0.06
0.288,-0.055
0.29,-0.045
0.292,-0.03
0.294,-0.015
0.296,0
0.298,0.015
0.3,0.02
0.302,0.015
0.304,0.005
0.306,-0.005
0.308,-0.02
0.31,-0.03
0.312,-0.04
0.314,-0.045
0.316,-0.045
0.318,-0.045
0.32,-0.04
0.322,-0.035
0.324,-0.035
0.326,-0.04
0.328,-0.04
0.33,-0.045
0.332,-0.05
0.334,-0.045
0.336,-0.04
0.338,-0.035
0.34,-0.025
0.342,-0.015
0.344,-0.005
0.346,-0.005
0.348,-0.005
0.35,-0.015
0.352,-0.03
0.354,-0.045
0.356,-0.06
0.358,-0.07
0.36,-0.07
0.362,-0.07
0.364,-0.06
0.366,-0.045
0.368,-0.025
0.37,-0.005
0.372,0.01
0.374,0.02
0.376,0.02
0.378,0.02
0.38,0.005
0.382,-0.01
0.384,-0.035
0.386,-0.06
0.388,-0.08
0.39,-0.095
0.392,-0.105
0.394,-0.11
0.396,-0.105
0.398,-0.095
0.4,-0.075
0.402,-0.06
0.404,-0.04
0.406,-0.03
0.408,-0.025
0.41,-0.025
0.412,-0.035
0.414,-0.05
0.416,-0.065
0.418,-0.075
0.42,-0.08
0.422,-0.08
0.424,-0.075
0.426,-0.06
0.428,-0.045
0.43,-0.03
0.432,-0.015
0.434,-0.01
0.436,-0.01
0.438,-0.015
0.44,-0.02
0.442,-0.025
0.444,-0.025
0.446,-0.02
0.448,-0.01
0.45,0
0.452,0.01
0.454,0.015
0.456,0.01
0.458,0
0.46,-0.015
0.462,-0.03
0.464,-0.04
0.466,-0.05
0.468,-0.045
0.47,-0.035
0.472,-0.015
0.474,0.005
0.476,0.02
0.478,0.035
0.48,0.04
0.482,0.035
0.484,0.025
0.486,0.01
0.488,-0.005
0.49,-0.02
0.492,-0.025
0.494,-0.03
0.496,-0.03
0.498,-0.025
0.5,-0.025
0.502,-0.025
0.504,-0.025
0.506,-0.035
0.508,-0.045
0.51,-0.055
0.512,-0.065
0.514,-0.07
0.516,-0.075
0.518,-0.075
0.52,-0.075
0.522,-0.07
0.524,-0.06
0.526,-0.055
0.528,-0.05
0.53,-0.045
0.532,-0.04
0.534,-0.035
0.536,-0.035
0.538,-0.03
0.54,-0.03
0.542,-0.025
0.544,-0.025
0.546,-0.03
0.548,-0.03
0.55,-0.035
0.552,-0.035
0.554,-0.04
0.556,-0.04
0.558,-0.035
0.56,-0.03
0.562,-0.02
0.564,-0.005
0.566,0.015
0.568,0.035
0.57,0.065
0.572,0.095
0.574,0.135
0.576,0.185
0.578,0.24
0.58,0.305
0.582,0.375
0.584,0.445
0.586,0.51
0.588,0.565
0.59,0.6
0.592,0.605
0.594,0.575
0.596,0.52
0.598,0.43
0.6,0.325
0.602,0.21
0.604,0.1
0.606,0.005
0.608,-0.07
0.61,-0.115
0.612,-0.13
0.614,-0.12
0.616,-0.1
0.618,-0.07
0.62,-0.035
0.622,-0.015
0.624,0
0.626,0.005
0.628,0
0.63,-0.01
0.632,-0.02
0.634,-0.035
0.636,-0.045
0.638,-0.055
0.64,-0.06
0.642,-0.065
0.644,-0.065
0.646,-0.065
0.648,-0.07
0.65,-0.07
0.652,-0.07
0.654,-0.07
0.656,-0.07
0.658,-0.075
0.66,-0.075
0.662,-0.08
0.664,-0.085
0.666,-0.09
0.668,-0.09
0.67,-0.09
0.672,-0.09
0.674,-0.08
0.676,-0.07
0.678,-0.06
0.68,-0.045
0.682,-0.035
0.684,-0.025
0.686,-0.02
0.688,-0.01
0.69,-0.005
0.692,0
0.694,0.005
0.696,0.01
0.698,0.01
0.7,0.01
0.702,0.005
0.704,0
0.706,-0.015
0.708,-0.03
0.71,-0.045
0.712,-0.06
0.714,-0.065
0.716,-0.06
0.718,-0.055
0.72,-0.035
0.722,-0.02
0.724,0
0.726,0.015
0.728,0.025
0.73,0.03
0.732,0.025
0.734,0.015
0.736,0
0.738,-0.01
0.74,-0.02
0.742,-0.025
0.744,-0.025
0.746,-0.02
0.748,-0.015
0.75,-0.01
0.752,-0.005
0.754,0.005
0.756,0.01
0.758,0.02
0.76,0.025
0.762,0.035
0.764,0.04
0.766,0.045
0.768,0.045
0.77,0.05
0.772,0.055
0.774,0.06
0.776,0.07
0.778,0.08
0.78,0.09
0.782,0.1
0.784,0.105
0.786,0.11
0.788,0.105
0.79,0.1
0.792,0.085
0.794,0.07
0.796,0.055
0.798,0.045
0.8,0.045
0.802,0.05
0.804,0.065
0.806,0.08
0.808,0.1
0.81,0.12
0.812,0.135
0.814,0.145
0.816,0.15
0.818,0.155
0.82,0.15
0.822,0.15
0.824,0.15
0.826,0.15
0.828,0.15
0.83,0.145
0.832,0.145
0.834,0.135
0.836,0.125
0.838,0.115
0.84,0.105
0.842,0.095
0.844,0.09
0.846,0.09
0.848,0.085
0.85,0.085
0.852,0.085
0.854,0.085
0.856,0.08
0.858,0.07
0.86,0.06
0.862,0.055
0.864,0.045
0.866,0.045
0.868,0.04
0.87,0.045
0.872,0.045
0.874,0.045
0.876,0.04
0.878,0.025
0.88,0.01
0.882,-0.01
0.884,-0.03
0.886,-0.045
0.888,-0.055
0.89,-0.055
0.892,-0.05
0.894,-0.035
0.896,-0.02
0.898,-0.005
0.9,0.005
0.902,0.005
0.904,0.005
0.906,-0.005
0.908,-0.02
0.91,-0.03
0.912,-0.035
0.914,-0.035
0.916,-0.03
0.918,-0.02
0.92,-0.01
0.922,-0.005
0.924,-0.005
0.926,-0.02
0.928,-0.04
0.93,-0.065
0.932,-0.085
0.934,-0.105
0.936,-0.11
0.938,-0.1
0.94,-0.08
0.942,-0.055
0.944,-0.02
0.946,0.005
0.948,0.025
0.95,0.03
0.952,0.025
0.954,0.005
0.956,-0.02
0.958,-0.045
0.96,-0.06
0.962,-0.075
0.964,-0.075
0.966,-0.07
0.968,-0.055
0.97,-0.045
0.972,-0.035
0.974,-0.025
0.976,-0.025
0.978,-0.03
0.98,-0.04
0.982,-0.045
0.984,-0.05
0.986,-0.055
0.988,-0.05
0.99,-0.05
0.992,-0.045
0.994,-0.04
0.996,-0.035
0.998,-0.03
1,-0.035
1.002,-0.035
1.004,-0.035
1.006,-0.03
1.008,-0.025
1.01,-0.02
1.012,-0.01
1.014,0.005
1.016,0.01
1.018,0.015
1.02,0.01
1.022,0
1.024,-0.015
1.026,-0.035
1.028,-0.055
1.03,-0.07
1.032,-0.075
1.034,-0.075
1.036,-0.06
1.038,-0.04
1.04,-0.02
1.042,0
1.044,0.01
1.046,0.015
1.048,0.01
1.05,0.005
1.052,-0.01
1.054,-0.015
1.056,-0.015
1.058,-0.01
1.06,0.005
1.062,0.015
1.064,0.03
1.066,0.03
1.068,0.02
1.07,0
1.072,-0.03
1.074,-0.06
1.076,-0.09
1.078,-0.115
1.08,-0.12
1.082,-0.115
1.084,-0.1
1.086,-0.075
1.088,-0.055
1.09,-0.035
1.092,-0.02
1.094,-0.02
1.096,-0.02
1.098,-0.03
1.1,-0.04
1.102,-0.05
1.104,-0.06
1.106,-0.065
1.108,-0.07
1.11,-0.075
1.112,-0.075
1.114,-0.08
1.116,-0.08
1.118,-0.08
1.12,-0.07
1.122,-0.06
1.124,-0.05
1.126,-0.035
1.128,-0.025
1.13,-0.02
1.132,-0.015
1.134,-0.02
1.136,-0.03
1.138,-0.04
1.14,-0.05
1.142,-0.055
1.144,-0.06
1.146,-0.06
1.148,-0.06
1.15,-0.055
1.152,-0.055
1.154,-0.055
1.156,-0.055
1.158,-0.06
1.16,-0.06
1.162,-0.06
1.164,-0.06
1.166,-0.055
1.168,-0.05
1.17,-0.045
1.172,-0.04
1.174,-0.04
1.176,-0.045
1.178,-0.055
1.18,-0.065
1.182,-0.07
1.184,-0.08
1.186,-0.08
1.188,-0.075
1.19,-0.065
1.192,-0.05
1.194,-0.035
1.196,-0.015
1.198,0.005
1.2,0.025
1.202,0.045
1.204,0.055
1.206,0.065
1.208,0.065
1.21,0.06
1.212,0.05
1.214,0.035
1.216,0.02
1.218,0
1.22,-0.015
1.222,-0.03
1.224,-0.04
1.226,-0.04
1.228,-0.04
1.23,-0.035
1.232,-0.025
1.234,-0.015
1.236,-0.005
1.238,0
1.24,0
1.242,0
1.244,-0.01
1.246,-0.02
1.248,-0.03
1.25,-0.035
1.252,-0.045
1.254,-0.05
1.256,-0.05
1.258,-0.05
1.26,-0.045
1.262,-0.045
1.264,-0.045
1.266,-0.045
1.268,-0.05
1.27,-0.05
1.272,-0.05
1.274,-0.05
1.276,-0.05
1.278,-0.05
1.28,-0.045
1.282,-0.045
1.284,-0.045
1.286,-0.05
1.288,-0.05
1.29,-0.06
1.292,-0.065
1.294,-0.065
1.296,-0.07
1.298,-0.065
1.3,-0.055
1.302,-0.04
1.304,-0.015
1.306,0.02
1.308,0.07
1.31,0.14
1.312,0.22
1.314,0.315
1.316,0.415
1.318,0.515
1.32,0.6
1.322,0.66
1.324,0.685
1.326,0.675
1.328,0.625
1.33,0.535
1.332,0.425
1.334,0.3
1.336,0.175
1.338,0.07
1.34,-0.015
1.342,-0.065
1.344,-0.09
1.346,-0.09
1.348,-0.075
1.35,-0.055
1.352,-0.04
1.354,-0.03
1.356,-0.035
1.358,-0.045
1.36,-0.06
1.362,-0.075
1.364,-0.09
1.366,-0.09
1.368,-0.08
1.37,-0.065
1.372,-0.045
1.374,-0.025
1.376,-0.01
1.378,0
1.38,0
1.382,-0.01
1.384,-0.025
1.386,-0.04
1.388,-0.055
1.39,-0.065
1.392,-0.07
1.394,-0.07
1.396,-0.07
1.398,-0.065
1.4,-0.06
1.402,-0.06
1.404,-0.055
1.406,-0.055
1.408,-0.055
1.41,-0.05
1.412,-0.045
1.414,-0.035
1.416,-0.025
1.418,-0.02
1.42,-0.015
1.422,-0.02
1.424,-0.03
1.426,-0.04
1.428,-0.055
1.43,-0.07
1.432,-0.08
1.434,-0.08
1.436,-0.08
1.438,-0.07
1.44,-0.06
1.442,-0.055
1.444,-0.045
1.446,-0.04
1.448,-0.04
1.45,-0.035
1.452,-0.03
1.454,-0.025
1.456,-0.015
1.458,-0.005
1.46,0
1.462,0.005
1.464,0.005
1.466,0
1.468,-0.01
1.47,-0.02
1.472,-0.03
1.474,-0.035
1.476,-0.035
1.478,-0.035
1.48,-0.025
1.482,-0.02
1.484,-0.01
1.486,0
1.488,0.005
1.49,0.01
1.492,0.015
1.494,0.015
1.496,0.02
1.498,0.02
1.5,0.02
1.502,0.02
1.504,0.02
1.506,0.015
1.508,0.015
1.51,0.015
1.512,0.015
1.514,0.025
1.516,0.035
1.518,0.05
1.52,0.07
1.522,0.085
1.524,0.095
1.526,0.1
1.528,0.1
1.53,0.1
1.532,0.09
1.534,0.08
1.536,0.075
1.538,0.07
1.54,0.075
1.542,0.08
1.544,0.09
1.546,0.095
1.548,0.105
1.55,0.11
1.552,0.11
1.554,0.105
1.556,0.095
1.558,0.085
1.56,0.08
1.562,0.075
1.564,0.075
1.566,0.08
1.568,0.095
1.57,0.115
1.572,0.135
1.574,0.155
1.576,0.165
1.578,0.17
1.58,0.165
1.582,0.155
1.584,0.13
1.586,0.105
1.588,0.075
1.59,0.05
1.592,0.035
1.594,0.025
1.596,0.02
1.598,0.025
1.6,0.03
1.602,0.04
1.604,0.045
1.606,0.045
1.608,0.045
1.61,0.035
1.612,0.025
1.614,0.015
1.616,0.005
1.618,-0.005
1.62,-0.015
1.622,-0.02
1.624,-0.025
1.626,-0.025
1.628,-0.03
1.63,-0.03
1.632,-0.035
1.634,-0.04
1.636,-0.045
1.638,-0.055
1.64,-0.06
1.642,-0.06
1.644,-0.06
1.646,-0.055
1.648,-0.05
1.65,-0.045
1.652,-0.04
1.654,-0.04
1.656,-0.045
1.658,-0.05
1.66,-0.065
1.662,-0.08
1.664,-0.095
1.666,-0.105
1.668,-0.115
1.67,-0.11
1.672,-0.105
1.674,-0.085
1.676,-0.065
1.678,-0.04
1.68,-0.02
1.682,-0.005
1.684,0.005
1.686,0.005
1.688,0
1.69,-0.01
1.692,-0.025
1.694,-0.04
1.696,-0.05
1.698,-0.06
1.7,-0.065
1.702,-0.065
1.704,-0.065
1.706,-0.07
1.708,-0.07
1.71,-0.07
1.712,-0.07
1.714,-0.07
1.716,-0.07
1.718,-0.065
1.72,-0.06
1.722,-0.05
1.724,-0.04
1.726,-0.03
1.728,-0.02
1.73,-0.015
1.732,-0.015
1.734,-0.02
1.736,-0.03
1.738,-0.035
1.74,-0.045
1.742,-0.045
1.744,-0.045
1.746,-0.045
1.748,-0.035
1.75,-0.025
1.752,-0.02
1.754,-0.015
1.756,-0.01
1.758,-0.015
1.76,-0.015
1.762,-0.025
1.764,-0.03
1.766,-0.04
1.768,-0.045
1.77,-0.045
1.772,-0.045
1.774,-0.04
1.776,-0.04
1.778,-0.035
1.78,-0.025
1.782,-0.025
1.784,-0.02
1.786,-0.02
1.788,-0.025
1.79,-0.03
1.792,-0.04
1.794,-0.05
1.796,-0.06
1.798,-0.065
1.8,-0.07
1.802,-0.07
1.804,-0.065
1.806,-0.055
1.808,-0.045
1.81,-0.03
1.812,-0.02
1.814,-0.015
1.816,-0.01
1.818,-0.015
1.82,-0.025
1.822,-0.04
1.824,-0.05
1.826,-0.065
1.828,-0.08
1.83,-0.085
1.832,-0.09
1.834,-0.085
1.836,-0.07
1.838,-0.055
1.84,-0.04
1.842,-0.025
1.844,-0.01
1.846,-0.005
1.848,-0.005
1.85,-0.01
1.852,-0.025
1.854,-0.045
1.856,-0.06
1.858,-0.07
1.86,-0.075
1.862,-0.065
1.864,-0.05
1.866,-0.03
1.868,-0.01
1.87,0.005
1.872,0.01
1.874,0.01
1.876,-0.005
1.878,-0.03
1.88,-0.06
1.882,-0.085
1.884,-0.105
1.886,-0.11
1.888,-0.105
1.89,-0.085
1.892,-0.06
1.894,-0.035
1.896,-0.015
1.898,-0.005
1.9,-0.005
1.902,-0.015
1.904,-0.03
1.906,-0.05
1.908,-0.065
1.91,-0.075
1.912,-0.075
1.914,-0.07
1.916,-0.055
1.918,-0.04
1.92,-0.025
1.922,-0.01
1.924,-0.005
1.926,-0.005
1.928,-0.01
1.93,-0.02
1.932,-0.035
1.934,-0.05
1.936,-0.06
1.938,-0.07
1.94,-0.075
1.942,-0.075
1.944,-0.075
1.946,-0.075
1.948,-0.07
1.95,-0.07
1.952,-0.065
1.954,-0.06
1.956,-0.055
1.958,-0.045
1.96,-0.035
1.962,-0.02
1.964,-0.005
1.966,0.005
1.968,0.02
1.97,0.025
1.972,0.03
1.974,0.03
1.976,0.02
1.978,0.015
1.98,0.005
1.982,0
1.984,-0.005
1.986,-0.005
1.988,0
1.99,0.005
1.992,0.02
1.994,0.03
1.996,0.04
1.998,0.05
2,0.045
2.002,0.04
2.004,0.025
2.006,0.005
2.008,-0.015
2.01,-0.035
2.012,-0.05
2.014,-0.06
2.016,-0.065
2.018,-0.065
2.02,-0.065
2.022,-0.06
2.024,-0.06
2.026,-0.06
2.028,-0.065
2.03,-0.07
2.032,-0.075
2.034,-0.075
2.036,-0.07
2.038,-0.06
2.04,-0.045
2.042,-0.035
2.044,-0.025
2.046,-0.025
2.048,-0.03
2.05,-0.045
2.052,-0.065
2.054,-0.08
2.056,-0.095
2.058,-0.1
2.06,-0.095
2.062,-0.08
2.064,-0.06
2.066,-0.03
2.068,0
2.07,0.035
2.072,0.075
2.074,0.125
2.076,0.185
2.078,0.255
2.08,0.345
2.082,0.44
2.084,0.535
2.086,0.62
2.088,0.675
2.09,0.695
2.092,0.675
2.094,0.61
2.096,0.51
2.098,0.385
2.1,0.25
2.102,0.12
2.104,0.015
2.106,-0.065
2.108,-0.11
2.11,-0.125
2.112,-0.115
2.114,-0.09
2.116,-0.065
2.118,-0.04
2.12,-0.03
2.122,-0.025
2.124,-0.035
2.126,-0.05
2.128,-0.07
2.13,-0.09
2.132,-0.105
2.134,-0.115
2.136,-0.12
2.138,-0.115
2.14,-0.11
2.142,-0.1
2.144,-0.09
2.146,-0.07
2.148,-0.055
2.15,-0.04
2.152,-0.03
2.154,-0.025
2.156,-0.025
2.158,-0.035
2.16,-0.05
2.162,-0.07
2.164,-0.085
2.166,-0.1
2.168,-0.11
2.17,-0.11
2.172,-0.1
2.174,-0.085
2.176,-0.055
2.178,-0.03
2.18,0
2.182,0.02
2.184,0.03
2.186,0.03
2.188,0.02
2.19,0.005
2.192,-0.015
2.194,-0.04
2.196,-0.055
2.198,-0.065
2.2,-0.065
2.202,-0.055
2.204,-0.04
2.206,-0.03
2.208,-0.02
2.21,-0.015
2.212,-0.02
2.214,-0.03
2.216,-0.045
2.218,-0.06
2.22,-0.075
2.222,-0.085
2.224,-0.085
2.226,-0.075
2.228,-0.06
2.23,-0.04
2.232,-0.025
2.234,-0.01
2.236,-0.005
2.238,-0.005
2.24,-0.015
2.242,-0.025
2.244,-0.03
2.246,-0.04
2.248,-0.04
2.25,-0.035
2.252,-0.02
2.254,-0.01
2.256,0.01
2.258,0.025
2.26,0.04
2.262,0.05
2.264,0.055
2.266,0.06
2.268,0.055
2.27,0.05
2.272,0.035
2.274,0.02
2.276,0.01
2.278,-0.005
2.28,-0.01
2.282,-0.01
2.284,0.005
2.286,0.025
2.288,0.045
2.29,0.075
2.292,0.095
2.294,0.105
2.296,0.11
2.298,0.1
2.3,0.08
2.302,0.06
2.304,0.045
2.306,0.035
2.308,0.04
2.31,0.055
2.312,0.08
2.314,0.105
2.316,0.13
2.318,0.145
2.32,0.15
2.322,0.14
2.324,0.12
2.326,0.1
2.328,0.075
2.33,0.065
2.332,0.06
2.334,0.065
2.336,0.08
2.338,0.095
2.34,0.11
2.342,0.125
2.344,0.13
2.346,0.125
2.348,0.115
2.35,0.095
2.352,0.08
2.354,0.06
2.356,0.04
2.358,0.025
2.36,0.015
2.362,0.01
2.364,0.005
2.366,0.005
2.368,0.005
2.37,0.01
2.372,0.01
2.374,0.015
2.376,0.015
2.378,0.01
2.38,0
2.382,-0.01
2.384,-0.025
2.386,-0.035
2.388,-0.045
2.39,-0.05
2.392,-0.05
2.394,-0.045
2.396,-0.035
2.398,-0.03
2.4,-0.025
2.402,-0.03
2.404,-0.035
2.406,-0.045
2.408,-0.055
2.41,-0.065
2.412,-0.07
2.414,-0.07
2.416,-0.065
2.418,-0.06
2.42,-0.055
2.422,-0.05
2.424,-0.045
2.426,-0.045
2.428,-0.045
2.43,-0.05
2.432,-0.055
2.434,-0.06
2.436,-0.065
2.438,-0.07
2.44,-0.075
2.442,-0.075
2.444,-0.075
2.446,-0.075
2.448,-0.075
2.45,-0.065
2.452,-0.06
2.454,-0.05
2.456,-0.04
2.458,-0.03
2.46,-0.025
2.462,-0.025
2.464,-0.03
2.466,-0.04
2.468,-0.05
2.47,-0.065
2.472,-0.07
2.474,-0.075
2.476,-0.07
2.478,-0.06
2.48,-0.045
2.482,-0.025
2.484,-0.005
2.486,0.01
2.488,0.025
2.49,0.03
2.492,0.03
2.494,0.02
2.496,0.01
2.498,-0.005
2.5,-0.02
2.502,-0.035
2.504,-0.045
2.506,-0.05
2.508,-0.05
2.51,-0.05
2.512,-0.045
2.514,-0.04
2.516,-0.035
2.518,-0.035
2.52,-0.03
2.522,-0.035
2.524,-0.035
2.526,-0.04
2.528,-0.045
2.53,-0.045
2.532,-0.045
2.534,-0.045
2.536,-0.04
2.538,-0.03
2.54,-0.025
2.542,-0.02
2.544,-0.015
2.546,-0.01
2.548,-0.01
2.55,-0.005
2.552,-0.005
2.554,-0.005
2.556,-0.005
2.558,0
2.56,0
2.562,0.005
2.564,0.005
2.566,0.01
2.568,0.005
2.57,0.005
2.572,0
2.574,-0.01
2.576,-0.015
2.578,-0.025
2.58,-0.03
2.582,-0.03
2.584,-0.03
2.586,-0.03
2.588,-0.025
2.59,-0.02
2.592,-0.015
2.594,-0.01
2.596,-0.01
2.598,-0.015
2.6,-0.02
2.602,-0.025
2.604,-0.03
2.606,-0.035
2.608,-0.035
2.61,-0.035
2.612,-0.03
2.614,-0.025
2.616,-0.015
2.618,-0.01
2.62,-0.01
2.622,-0.01
2.624,-0.01
2.626,-0.01
2.628,-0.01
2.63,-0.01
2.632,-0.01
2.634,-0.005
2.636,-0.005
2.638,0
2.64,-0.005
2.642,-0.01
2.644,-0.02
2.646,-0.035
2.648,-0.045
2.65,-0.06
2.652,-0.07
2.654,-0.075
2.656,-0.07
2.658,-0.065
2.66,-0.055
2.662,-0.04
2.664,-0.03
2.666,-0.02
2.668,-0.01
2.67,-0.01
2.672,-0.015
2.674,-0.015
2.676,-0.02
2.678,-0.025
2.68,-0.025
2.682,-0.025
2.684,-0.02
2.686,-0.01
2.688,0
2.69,0.005
2.692,0.005
2.694,0.005
2.696,-0.005
2.698,-0.015
2.7,-0.03
2.702,-0.05
2.704,-0.065
2.706,-0.075
2.708,-0.075
2.71,-0.075
2.712,-0.065
2.714,-0.05
2.716,-0.035
2.718,-0.02
2.72,-0.005
2.722,0
2.724,0.005
2.726,0.01
2.728,0.005
2.73,0.005
2.732,0
2.734,0
2.736,0
2.738,0.005
2.74,0.01
2.742,0.02
2.744,0.035
2.746,0.045
2.748,0.055
2.75,0.065
2.752,0.07
2.754,0.065
2.756,0.06
2.758,0.045
2.76,0.035
2.762,0.025
2.764,0.02
2.766,0.025
2.768,0.03
2.77,0.045
2.772,0.06
2.774,0.07
2.776,0.075
2.778,0.065
2.78,0.05
2.782,0.025
2.784,0
2.786,-0.025
2.788,-0.045
2.79,-0.055
2.792,-0.05
2.794,-0.04
2.796,-0.025
2.798,-0.01
2.8,-0.005
2.802,-0.005
2.804,-0.01
2.806,-0.025
2.808,-0.035
2.81,-0.045
2.812,-0.055
2.814,-0.055
2.816,-0.05
2.818,-0.04
2.82,-0.04
2.822,-0.04
2.824,-0.045
2.826,-0.055
2.828,-0.07
2.83,-0.08
2.832,-0.085
2.834,-0.085
2.836,-0.075
2.838,-0.055
2.84,-0.03
2.842,-0.005
2.844,0.025
2.846,0.06
2.848,0.105
2.85,0.16
2.852,0.225
2.854,0.305
2.856,0.395
2.858,0.49
2.86,0.575
2.862,0.64
2.864,0.67
2.866,0.665
2.868,0.62
2.87,0.535
2.872,0.425
2.874,0.305
2.876,0.185
2.878,0.085
2.88,0.01
2.882,-0.035
2.884,-0.055
2.886,-0.06
2.888,-0.06
2.89,-0.055
2.892,-0.06
2.894,-0.07
2.896,-0.08
2.898,-0.095
2.9,-0.105
2.902,-0.105
2.904,-0.095
2.906,-0.075
2.908,-0.05
2.91,-0.025
2.912,-0.01
2.914,-0.005
2.916,-0.005
2.918,-0.015
2.92,-0.025
2.922,-0.04
2.924,-0.045
2.926,-0.05
2.928,-0.045
2.93,-0.04
2.932,-0.04
2.934,-0.035
2.936,-0.04
2.938,-0.045
2.94,-0.05
2.942,-0.06
2.944,-0.06
2.946,-0.06
2.948,-0.055
2.95,-0.05
2.952,-0.045
2.954,-0.045
2.956,-0.05
2.958,-0.055
2.96,-0.06
2.962,-0.065
2.964,-0.065
2.966,-0.06
2.968,-0.05
2.97,-0.035
2.972,-0.02
2.974,-0.005
2.976,0
2.978,0
2.98,-0.005
2.982,-0.015
2.984,-0.025
2.986,-0.04
2.988,-0.05
2.99,-0.05
2.992,-0.05
2.994,-0.05
2.996,-0.04
2.998,-0.035
3,-0.025
3.002,-0.015
3.004,-0.01
3.006,-0.005
3.008,0
3.01,0
3.012,-0.005
3.014,-0.01
3.016,-0.015
3.018,-0.02
3.02,-0.02
3.022,-0.015
3.024,-0.005
3.026,0.015
3.028,0.035
3.03,0.055
3.032,0.07
3.034,0.075
3.036,0.075
3.038,0.07
3.04,0.055
3.042,0.04
3.044,0.025
3.046,0.015
3.048,0.015
3.05,0.02
3.052,0.03
3.054,0.04
3.056,0.045
3.058,0.05
3.06,0.05
3.062,0.05
3.064,0.045
3.066,0.05
3.068,0.05
3.07,0.06
3.072,0.07
3.074,0.08
3.076,0.085
3.078,0.085
3.08,0.075
3.082,0.06
3.084,0.04
3.086,0.025
3.088,0.02
3.09,0.03
3.092,0.05
3.094,0.08
3.096,0.12
3.098,0.16
3.1,0.185
3.102,0.205
3.104,0.205
3.106,0.195
3.108,0.175
3.11,0.145
3.112,0.125
3.114,0.105
3.116,0.095
3.118,0.09
3.12,0.095
3.122,0.095
3.124,0.095
3.126,0.09
3.128,0.075
3.13,0.06
3.132,0.04
3.134,0.025
3.136,0.015
3.138,0.015
3.14,0.02
3.142,0.03
3.144,0.045
3.146,0.05
3.148,0.055
3.15,0.045
3.152,0.03
3.154,0.01
3.156,-0.015
3.158,-0.035
3.16,-0.045
3.162,-0.05
3.164,-0.045
3.166,-0.04
3.168,-0.025
3.17,-0.02
3.172,-0.015
3.174,-0.02
3.176,-0.03
3.178,-0.045
3.18,-0.065
3.182,-0.075
3.184,-0.085
3.186,-0.09
3.188,-0.085
3.19,-0.08
3.192,-0.075
3.194,-0.07
3.196,-0.07
3.198,-0.075
3.2,-0.08
3.202,-0.085
3.204,-0.085
3.206,-0.08
3.208,-0.065
3.21,-0.05
3.212,-0.03
3.214,-0.01
3.216,0.005
3.218,0.01
3.22,0.005
3.222,-0.01
3.224,-0.03
3.226,-0.05
3.228,-0.075
3.23,-0.095
3.232,-0.105
3.234,-0.105
3.236,-0.1
3.238,-0.09
3.24,-0.08
3.242,-0.07
3.244,-0.055
3.246,-0.05
3.248,-0.05
3.25,-0.05
3.252,-0.05
3.254,-0.055
3.256,-0.065
3.258,-0.07
3.26,-0.075
3.262,-0.08
3.264,-0.08
3.266,-0.085
3.268,-0.08
3.27,-0.08
3.272,-0.07
3.274,-0.065
3.276,-0.055
3.278,-0.045
3.28,-0.04
3.282,-0.03
3.284,-0.025
3.286,-0.025
3.288,-0.02
3.29,-0.02
3.292,-0.015
3.294,-0.015
3.296,-0.01
3.298,-0.01
3.3,-0.015
3.302,-0.02
3.304,-0.03
3.306,-0.05
3.308,-0.065
3.31,-0.085
3.312,-0.105
3.314,-0.11
3.316,-0.11
3.318,-0.105
3.32,-0.085
3.322,-0.065
3.324,-0.04
3.326,-0.025
3.328,-0.02
3.33,-0.025
3.332,-0.04
3.334,-0.065
3.336,-0.095
3.338,-0.125
3.34,-0.145
3.342,-0.15
3.344,-0.15
3.346,-0.13
3.348,-0.1
3.35,-0.07
3.352,-0.035
3.354,-0.01
3.356,0.01
3.358,0.015
3.36,0.01
3.362,-0.005
3.364,-0.02
3.366,-0.04
3.368,-0.055
3.37,-0.065
3.372,-0.07
3.374,-0.07
3.376,-0.06
3.378,-0.05
3.38,-0.045
3.382,-0.035
3.384,-0.035
3.386,-0.035
3.388,-0.04
3.39,-0.045
3.392,-0.055
3.394,-0.06
3.396,-0.06
3.398,-0.065
3.4,-0.065
3.402,-0.065
3.404,-0.065
3.406,-0.065
3.408,-0.065
3.41,-0.07
3.412,-0.075
3.414,-0.08
3.416,-0.085
3.418,-0.085
3.42,-0.08
3.422,-0.075
3.424,-0.065
3.426,-0.06
3.428,-0.055
3.43,-0.055
3.432,-0.06
3.434,-0.07
3.436,-0.08
3.438,-0.095
3.44,-0.105
3.442,-0.115
3.444,-0.12
3.446,-0.115
3.448,-0.11
3.45,-0.1
3.452,-0.09
3.454,-0.075
3.456,-0.06
3.458,-0.05
3.46,-0.04
3.462,-0.035
3.464,-0.03
3.466,-0.025
3.468,-0.025
3.47,-0.025
3.472,-0.03
3.474,-0.035
3.476,-0.04
3.478,-0.045
3.48,-0.055
3.482,-0.06
3.484,-0.07
3.486,-0.08
3.488,-0.09
3.49,-0.1
3.492,-0.11
3.494,-0.115
3.496,-0.115
3.498,-0.115
3.5,-0.105
3.502,-0.095
3.504,-0.08
3.506,-0.065
3.508,-0.055
3.51,-0.05
3.512,-0.04
3.514,-0.035
3.516,-0.03
3.518,-0.025
3.52,-0.01
3.522,0.005
3.524,0.02
3.526,0.04
3.528,0.055
3.53,0.06
3.532,0.06
3.534,0.05
3.536,0.035
3.538,0.015
3.54,0
3.542,-0.01
3.544,-0.015
3.546,-0.01
3.548,-0.005
3.55,0.005
3.552,0.015
3.554,0.02
3.556,0.015
3.558,0.005
3.56,-0.01
3.562,-0.025
3.564,-0.04
3.566,-0.05
3.568,-0.055
3.57,-0.055
3.572,-0.05
3.574,-0.045
3.576,-0.045
3.578,-0.045
3.58,-0.05
3.582,-0.055
3.584,-0.065
3.586,-0.07
3.588,-0.075
3.59,-0.08
3.592,-0.075
3.594,-0.07
3.596,-0.06
3.598,-0.05
3.6,-0.045
3.602,-0.04
3.604,-0.04
3.606,-0.045
3.608,-0.05
3.61,-0.055
3.612,-0.06
3.614,-0.06
3.616,-0.055
3.618,-0.045
3.62,-0.025
3.622,0.005
3.624,0.04
3.626,0.09
3.628,0.145
3.63,0.215
3.632,0.295
3.634,0.385
3.636,0.475
3.638,0.56
3.64,0.635
3.642,0.69
3.644,0.705
3.646,0.685
3.648,0.625
3.65,0.53
3.652,0.405
3.654,0.265
3.656,0.13
3.658,0.01
3.66,-0.08
3.662,-0.13
3.664,-0.15
3.666,-0.13
3.668,-0.095
3.67,-0.05
3.672,-0.01
3.674,0.02
3.676,0.03
3.678,0.025
3.68,0.005
3.682,-0.025
3.684,-0.05
3.686,-0.075
3.688,-0.09
3.69,-0.1
3.692,-0.1
3.694,-0.095
3.696,-0.09
3.698,-0.08
3.7,-0.075
3.702,-0.065
3.704,-0.05
3.706,-0.04
3.708,-0.025
3.71,-0.01
3.712,0
3.714,0.005
3.716,0.005
3.718,0
3.72,-0.005
3.722,-0.01
3.724,-0.01
3.726,-0.005
3.728,0.005
3.73,0.025
3.732,0.045
3.734,0.06
3.736,0.065
3.738,0.06
3.74,0.045
3.742,0.02
3.744,-0.01
3.746,-0.035
3.748,-0.055
3.75,-0.06
3.752,-0.06
3.754,-0.045
3.756,-0.02
3.758,0
3.76,0.02
3.762,0.035
3.764,0.035
3.766,0.03
3.768,0.015
3.77,0
3.772,-0.015
3.774,-0.03
3.776,-0.035
3.778,-0.035
3.78,-0.03
3.782,-0.02
3.784,0
3.786,0.015
3.788,0.03
3.79,0.04
3.792,0.05
3.794,0.055
3.796,0.055
3.798,0.05
3.8,0.045
3.802,0.035
3.804,0.03
3.806,0.025
3.808,0.025
3.81,0.025
3.812,0.03
3.814,0.04
3.816,0.045
3.818,0.05
3.82,0.055
3.822,0.055
3.824,0.06
3.826,0.06
3.828,0.07
3.83,0.075
3.832,0.09
3.834,0.105
3.836,0.12
3.838,0.135
3.84,0.14
3.842,0.14
3.844,0.13
3.846,0.115
3.848,0.095
3.85,0.085
3.852,0.075
3.854,0.08
3.856,0.09
3.858,0.11
3.86,0.135
3.862,0.155
3.864,0.165
3.866,0.17
3.868,0.16
3.87,0.145
3.872,0.13
3.874,0.11
3.876,0.1
3.878,0.1
3.88,0.11
3.882,0.125
3.884,0.14
3.886,0.16
3.888,0.165
3.89,0.165
3.892,0.16
3.894,0.14
3.896,0.125
3.898,0.105
3.9,0.095
3.902,0.09
3.904,0.095
3.906,0.105
3.908,0.12
3.91,0.13
3.912,0.14
3.914,0.14
3.916,0.135
3.918,0.115
3.92,0.095
3.922,0.065
3.924,0.035
3.926,0.005
3.928,-0.02
3.93,-0.04
3.932,-0.045
3.934,-0.05
3.936,-0.045
3.938,-0.035
3.94,-0.02
3.942,-0.01
3.944,-0.005
3.946,0
3.948,0
3.95,-0.005
3.952,-0.01
3.954,-0.015
3.956,-0.015
3.958,-0.015
3.96,-0.015
3.962,-0.01
3.964,0
3.966,0
3.968,0
3.97,-0.005
3.972,-0.01
3.974,-0.025
3.976,-0.04
3.978,-0.055
3.98,-0.07
3.982,-0.08
3.984,-0.095
3.986,-0.1
3.988,-0.1
3.99,-0.095
3.992,-0.085
3.994,-0.065
3.996,-0.045
3.998,-0.02
4,0
4.002,0.015
4.004,0.025
4.006,0.02
4.008,0.005
4.01,-0.015
4.012,-0.04
4.014,-0.065
4.016,-0.085
4.018,-0.095
4.02,-0.09
4.022,-0.08
4.024,-0.055
4.026,-0.03
4.028,-0.005
4.03,0.015
4.032,0.03
4.034,0.035
4.036,0.03
4.038,0.015
4.04,0
4.042,-0.02
4.044,-0.04
4.046,-0.055
4.048,-0.065
4.05,-0.07
4.052,-0.06
4.054,-0.05
4.056,-0.03
4.058,-0.005
4.06,0.015
4.062,0.035
4.064,0.045
4.066,0.05
4.068,0.045
4.07,0.03
4.072,0.015
4.074,-0.01
4.076,-0.03
4.078,-0.045
4.08,-0.06
4.082,-0.07
4.084,-0.07
4.086,-0.07
4.088,-0.065
4.09,-0.06
4.092,-0.045
4.094,-0.035
4.096,-0.02
4.098,-0.005
4.1,0.005
4.102,0.01
4.104,0.01
4.106,0
4.108,-0.015
4.11,-0.035
4.112,-0.05
4.114,-0.06
4.116,-0.06
4.118,-0.05
4.12,-0.03
4.122,0
4.124,0.025
4.126,0.045
4.128,0.055
4.13,0.05
4.132,0.03
4.134,0.005
4.136,-0.025
4.138,-0.05
4.14,-0.065
4.142,-0.07
4.144,-0.06
4.146,-0.04
4.148,-0.015
4.15,0.01
4.152,0.02
4.154,0.03
4.156,0.025
4.158,0.015
4.16,0.005
4.162,-0.005
4.164,-0.015
4.166,-0.02
4.168,-0.025
4.17,-0.03
4.172,-0.035
4.174,-0.045
4.176,-0.06
4.178,-0.075
4.18,-0.085
4.182,-0.09
4.184,-0.09
4.186,-0.075
4.188,-0.055
4.19,-0.035
4.192,-0.01
4.194,0.01
4.196,0.02
4.198,0.02
4.2,0.015
4.202,0
4.204,-0.02
4.206,-0.04
4.208,-0.055
4.21,-0.065
4.212,-0.065
4.214,-0.06
4.216,-0.05
4.218,-0.04
4.22,-0.03
4.222,-0.02
4.224,-0.015
4.226,-0.015
4.228,-0.02
4.23,-0.025
4.232,-0.03
4.234,-0.03
4.236,-0.025
4.238,-0.02
4.24,-0.01
4.242,0
4.244,0.005
4.246,0.01
4.248,0
4.25,-0.015
4.252,-0.04
4.254,-0.065
4.256,-0.09
4.258,-0.11
4.26,-0.115
4.262,-0.11
4.264,-0.09
4.266,-0.06
4.268,-0.03
4.27,0
4.272,0.02
4.274,0.03
4.276,0.025
4.278,0.01
4.28,-0.01
4.282,-0.035
4.284,-0.055
4.286,-0.065
4.288,-0.065
4.29,-0.055
4.292,-0.035
4.294,-0.01
4.296,0.01
4.298,0.025
4.3,0.04
4.302,0.045
4.304,0.045
4.306,0.045
4.308,0.045
4.31,0.045
4.312,0.045
4.314,0.045
4.316,0.045
4.318,0.045
4.32,0.04
4.322,0.035
4.324,0.025
4.326,0.015
4.328,0.01
4.33,0.01
4.332,0.01
4.334,0.015
4.336,0.025
4.338,0.03
4.34,0.035
4.342,0.03
4.344,0.02
4.346,0.005
4.348,-0.015
4.35,-0.035
4.352,-0.055
4.354,-0.065
4.356,-0.07
4.358,-0.07
4.36,-0.06
4.362,-0.055
4.364,-0.045
4.366,-0.035
4.368,-0.035
4.37,-0.035
4.372,-0.045
4.374,-0.05
4.376,-0.06
4.378,-0.065
4.38,-0.065
4.382,-0.065
4.384,-0.06
4.386,-0.055
4.388,-0.045
4.39,-0.035
4.392,-0.025
4.394,-0.015
4.396,-0.01
4.398,-0.01
4.4,-0.01
4.402,-0.01
4.404,-0.015
4.406,-0.01
4.408,0
4.41,0.025
4.412,0.065
4.414,0.125
4.416,0.205
4.418,0.3
4.42,0.405
4.422,0.505
4.424,0.595
4.426,0.65
4.428,0.675
4.43,0.66
4.432,0.6
4.434,0.51
4.436,0.395
4.438,0.27
4.44,0.15
4.442,0.05
4.444,-0.025
4.446,-0.075
4.448,-0.095
4.45,-0.1
4.452,-0.09
4.454,-0.075
4.456,-0.06
4.458,-0.055
4.46,-0.05
4.462,-0.05
4.464,-0.05
4.466,-0.045
4.468,-0.04
4.47,-0.02
4.472,-0.005
4.474,0.01
4.476,0.02
4.478,0.02
4.48,0.015
4.482,-0.005
4.484,-0.03
4.486,-0.05
4.488,-0.07
4.49,-0.08
4.492,-0.085
4.494,-0.075
4.496,-0.065
4.498,-0.055
4.5,-0.055
4.502,-0.055
4.504,-0.065
4.506,-0.08
4.508,-0.095
4.51,-0.1
4.512,-0.1
4.514,-0.085
4.516,-0.065
4.518,-0.035
4.52,-0.01
4.522,0.015
4.524,0.02
4.526,0.015
4.528,-0.005
4.53,-0.035
4.532,-0.07
4.534,-0.1
4.536,-0.12
4.538,-0.13
4.54,-0.12
4.542,-0.1
4.544,-0.07
4.546,-0.045
4.548,-0.02
4.55,-0.005
4.552,0
4.554,-0.005
4.556,-0.015
4.558,-0.03
4.56,-0.04
4.562,-0.045
4.564,-0.05
4.566,-0.05
4.568,-0.045
4.57,-0.045
4.572,-0.045
4.574,-0.05
4.576,-0.06
4.578,-0.065
4.58,-0.07
4.582,-0.07
4.584,-0.065
4.586,-0.045
4.588,-0.025
4.59,0
4.592,0.025
4.594,0.045
4.596,0.06
4.598,0.065
4.6,0.065
4.602,0.06
4.604,0.05
4.606,0.04
4.608,0.03
4.61,0.025
4.612,0.02
4.614,0.015
4.616,0.015
4.618,0.015
4.62,0.01
4.622,0.01
4.624,0.01
4.626,0.015
4.628,0.02
4.63,0.03
4.632,0.035
4.634,0.045
4.636,0.05
4.638,0.05
4.64,0.05
4.642,0.055
4.644,0.055
4.646,0.055
4.648,0.065
4.65,0.075
4.652,0.09
4.654,0.105
4.656,0.115
4.658,0.125
4.66,0.13
4.662,0.13
4.664,0.125
4.666,0.115
4.668,0.115
4.67,0.11
4.672,0.115
4.674,0.125
4.676,0.13
4.678,0.14
4.68,0.14
4.682,0.135
4.684,0.12
4.686,0.1
4.688,0.075
4.69,0.05
4.692,0.035
4.694,0.02
4.696,0.015
4.698,0.015
4.7,0.015
4.702,0.015
4.704,0.015
4.706,0.005
4.708,-0.01
4.71,-0.025
4.712,-0.045
4.714,-0.06
4.716,-0.065
4.718,-0.065
4.72,-0.06
4.722,-0.045
4.724,-0.025
4.726,-0.01
4.728,0.005
4.73,0.015
4.732,0.015
4.734,0.005
4.736,-0.005
4.738,-0.02
4.74,-0.035
4.742,-0.05
4.744,-0.06
4.746,-0.06
4.748,-0.06
4.75,-0.055
4.752,-0.05
4.754,-0.045
4.756,-0.045
4.758,-0.045
4.76,-0.055
4.762,-0.06
4.764,-0.07
4.766,-0.075
4.768,-0.07
4.77,-0.06
4.772,-0.045
4.774,-0.02
4.776,0.005
4.778,0.03
4.78,0.04
4.782,0.045
4.784,0.03
4.786,0.01
4.788,-0.02
4.79,-0.055
4.792,-0.08
4.794,-0.095
4.796,-0.105
4.798,-0.1
4.8,-0.085
4.802,-0.07
4.804,-0.05
4.806,-0.045
4.808,-0.04
4.81,-0.05
4.812,-0.07
4.814,-0.09
4.816,-0.11
4.818,-0.125
4.82,-0.135
4.822,-0.13
4.824,-0.12
4.826,-0.1
4.828,-0.08
4.83,-0.06
4.832,-0.04
4.834,-0.035
4.836,-0.03
4.838,-0.04
4.84,-0.05
4.842,-0.06
4.844,-0.07
4.846,-0.075
4.848,-0.075
4.85,-0.065
4.852,-0.05
4.854,-0.035
4.856,-0.02
4.858,-0.005
4.86,0.005
4.862,0.01
4.864,0.01
4.866,0.01
4.868,0.005
4.87,0
4.872,-0.005
4.874,-0.01
4.876,-0.015
4.878,-0.02
4.88,-0.025
4.882,-0.03
4.884,-0.035
4.886,-0.04
4.888,-0.045
4.89,-0.045
4.892,-0.04
4.894,-0.04
4.896,-0.04
4.898,-0.04
4.9,-0.045
4.902,-0.055
4.904,-0.065
4.906,-0.075
4.908,-0.085
4.91,-0.09
4.912,-0.09
4.914,-0.08
4.916,-0.07
4.918,-0.06
4.92,-0.055
4.922,-0.05
4.924,-0.05
4.926,-0.055
4.928,-0.065
4.93,-0.08
4.932,-0.09
4.934,-0.105
4.936,-0.11
4.938,-0.115
4.94,-0.115
4.942,-0.105
4.944,-0.095
4.946,-0.08
4.948,-0.06
4.95,-0.045
4.952,-0.025
4.954,-0.015
4.956,-0.01
4.958,-0.015
4.96,-0.025
4.962,-0.04
4.964,-0.06
4.966,-0.075
4.968,-0.085
4.97,-0.095
4.972,-0.09
4.974,-0.085
4.976,-0.075
4.978,-0.06
4.98,-0.055
4.982,-0.045
4.984,-0.045
4.986,-0.045
4.988,-0.045
4.99,-0.05
4.992,-0.055
4.994,-0.06
4.996,-0.06
4.998,-0.065
5,-0.07
5.002,-0.075
5.004,-0.075
5.006,-0.07
5.008,-0.065
5.01,-0.055
5.012,-0.04
5.014,-0.03
5.016,-0.02
5.018,-0.015
5.02,-0.02
5.022,-0.035
5.024,-0.05
5.026,-0.07
5.028,-0.09
5.03,-0.1
5.032,-0.1
5.034,-0.095
5.036,-0.085
5.038,-0.07
5.04,-0.055
5.042,-0.05
5.044,-0.045
5.046,-0.05
5.048,-0.06
5.05,-0.065
5.052,-0.07
5.054,-0.065
5.056,-0.06
5.058,-0.045
5.06,-0.03
5.062,-0.02
5.064,-0.01
5.066,0
5.068,0
5.07,0.005
5.072,0.005
5.074,0.015
5.076,0.025
5.078,0.04
5.08,0.055
5.082,0.065
5.084,0.07
5.086,0.065
5.088,0.055
5.09,0.035
5.092,0.01
5.094,-0.01
5.096,-0.03
5.098,-0.045
5.1,-0.055
5.102,-0.055
5.104,-0.06
5.106,-0.06
5.108,-0.065
5.11,-0.07
5.112,-0.085
5.114,-0.1
5.116,-0.115
5.118,-0.125
5.12,-0.125
5.122,-0.12
5.124,-0.105
5.126,-0.08
5.128,-0.055
5.13,-0.035
5.132,-0.015
5.134,-0.01
5.136,-0.015
5.138,-0.03
5.14,-0.055
5.142,-0.08
5.144,-0.105
5.146,-0.12
5.148,-0.125
5.15,-0.12
5.152,-0.105
5.154,-0.085
5.156,-0.065
5.158,-0.05
5.16,-0.035
5.162,-0.02
5.164,-0.005
5.166,0.02
5.168,0.065
5.17,0.125
5.172,0.205
5.174,0.305
5.176,0.41
5.178,0.52
5.18,0.61
5.182,0.675
5.184,0.7
5.186,0.68
5.188,0.615
5.19,0.51
5.192,0.38
5.194,0.235
5.196,0.1
5.198,-0.015
5.2,-0.1
5.202,-0.15
5.204,-0.165
5.206,-0.16
5.208,-0.135
5.21,-0.105
5.212,-0.08
5.214,-0.065
5.216,-0.06
5.218,-0.07
5.22,-0.08
5.222,-0.09
5.224,-0.1
5.226,-0.1
5.228,-0.095
5.23,-0.085
5.232,-0.075
5.234,-0.07
5.236,-0.07
5.238,-0.08
5.24,-0.085
5.242,-0.095
5.244,-0.095
5.246,-0.095
5.248,-0.085
5.25,-0.07
5.252,-0.055
5.254,-0.04
5.256,-0.035
5.258,-0.03
5.26,-0.03
5.262,-0.03
5.264,-0.025
5.266,-0.02
5.268,-0.01
5.27,0.005
5.272,0.015
5.274,0.02
5.276,0.02
5.278,0.015
5.28,0
5.282,-0.02
5.284,-0.04
5.286,-0.055
5.288,-0.065
5.29,-0.065
5.292,-0.06
5.294,-0.055
5.296,-0.055
5.298,-0.06
5.3,-0.075
5.302,-0.09
5.304,-0.11
5.306,-0.125
5.308,-0.13
5.31,-0.12
5.312,-0.1
5.314,-0.07
5.316,-0.03
5.318,0
5.32,0.025
5.322,0.04
5.324,0.035
5.326,0.015
5.328,-0.015
5.33,-0.055
5.332,-0.085
5.334,-0.11
5.336,-0.12
5.338,-0.115
5.34,-0.095
5.342,-0.065
5.344,-0.025
5.346,0.02
5.348,0.06
5.35,0.09
5.352,0.11
5.354,0.12
5.356,0.11
5.358,0.095
5.36,0.065
5.362,0.035
5.364,0.005
5.366,-0.015
5.368,-0.03
5.37,-0.03
5.372,-0.025
5.374,-0.005
5.376,0.015
5.378,0.04
5.38,0.065
5.382,0.08
5.384,0.095
5.386,0.1
5.388,0.1
5.39,0.1
5.392,0.095
5.394,0.095
5.396,0.095
5.398,0.095
5.4,0.1
5.402,0.105
5.404,0.11
5.406,0.115
5.408,0.115
5.41,0.115
5.412,0.115
5.414,0.11
5.416,0.1
5.418,0.095
5.42,0.09
5.422,0.09
5.424,0.095
5.426,0.1
5.428,0.11
5.43,0.125
5.432,0.13
5.434,0.135
5.436,0.135
5.438,0.13
5.44,0.115
5.442,0.1
5.444,0.085
5.446,0.065
5.448,0.055
5.45,0.045
5.452,0.04
5.454,0.035
5.456,0.03
5.458,0.025
5.46,0.02
5.462,0.01
5.464,0
5.466,-0.005
5.468,-0.01
5.47,-0.01
5.472,0
5.474,0.01
5.476,0.025
5.478,0.035
5.48,0.04
5.482,0.04
5.484,0.03
5.486,0.02
5.488,0
5.49,-0.015
5.492,-0.03
5.494,-0.04
5.496,-0.045
5.498,-0.045
5.5,-0.04
5.502,-0.035
5.504,-0.035
5.506,-0.03
5.508,-0.03
5.51,-0.03
5.512,-0.03
5.514,-0.03
5.516,-0.025
5.518,-0.02
5.52,-0.02
5.522,-0.02
5.524,-0.02
5.526,-0.03
5.528,-0.045
5.53,-0.06
5.532,-0.075
5.534,-0.085
5.536,-0.085
5.538,-0.075
5.54,-0.06
5.542,-0.03
5.544,0
5.546,0.025
5.548,0.04
5.55,0.045
5.552,0.04
5.554,0.015
5.556,-0.01
5.558,-0.04
5.56,-0.065
5.562,-0.075
5.564,-0.08
5.566,-0.07
5.568,-0.05
5.57,-0.025
5.572,0
5.574,0.02
5.576,0.03
5.578,0.03
5.58,0.025
5.582,0.015
5.584,0
5.586,-0.01
5.588,-0.02
5.59,-0.025
5.592,-0.03
5.594,-0.03
5.596,-0.03
5.598,-0.03
5.6,-0.035
5.602,-0.035
5.604,-0.04
5.606,-0.04
5.608,-0.04
5.61,-0.04
5.612,-0.04
5.614,-0.035
5.616,-0.03
5.618,-0.025
5.62,-0.02
5.622,-0.01
5.624,0
5.626,0.015
5.628,0.03
5.63,0.04
5.632,0.05
5.634,0.06
5.636,0.055
5.638,0.05
5.64,0.035
5.642,0.015
5.644,-0.005
5.646,-0.03
5.648,-0.045
5.65,-0.055
5.652,-0.06
5.654,-0.055
5.656,-0.045
5.658,-0.03
5.66,-0.015
5.662,0
5.664,0.01
5.666,0.015
5.668,0.015
5.67,0.01
5.672,0
5.674,-0.015
5.676,-0.03
5.678,-0.05
5.68,-0.065
5.682,-0.075
5.684,-0.085
5.686,-0.085
5.688,-0.075
5.69,-0.065
5.692,-0.055
5.694,-0.04
5.696,-0.03
5.698,-0.02
5.7,-0.02
5.702,-0.025
5.704,-0.03
5.706,-0.035
5.708,-0.035
5.71,-0.035
5.712,-0.035
5.714,-0.03
5.716,-0.02
5.718,-0.02
5.72,-0.015
5.722,-0.02
5.724,-0.025
5.726,-0.03
5.728,-0.03
5.73,-0.03
5.732,-0.03
5.734,-0.02
5.736,-0.01
5.738,0
5.74,0.005
5.742,0.01
5.744,0.005
5.746,-0.01
5.748,-0.025
5.75,-0.035
5.752,-0.045
5.754,-0.05
5.756,-0.045
5.758,-0.035
5.76,-0.025
5.762,-0.01
5.764,-0.005
5.766,-0.005
5.768,-0.015
5.77,-0.03
5.772,-0.05
5.774,-0.065
5.776,-0.075
5.778,-0.07
5.78,-0.055
5.782,-0.025
5.784,0.01
5.786,0.05
5.788,0.08
5.79,0.1
5.792,0.11
5.794,0.105
5.796,0.09
5.798,0.07
5.8,0.05
5.802,0.04
5.804,0.035
5.806,0.04
5.808,0.055
5.81,0.065
5.812,0.075
5.814,0.075
5.816,0.065
5.818,0.045
5.82,0.02
5.822,-0.005
5.824,-0.025
5.826,-0.035
5.828,-0.035
5.83,-0.025
5.832,-0.01
5.834,0
5.836,0.01
5.838,0.01
5.84,0
5.842,-0.02
5.844,-0.05
5.846,-0.075
5.848,-0.095
5.85,-0.105
5.852,-0.105
5.854,-0.09
5.856,-0.07
5.858,-0.04
5.86,-0.015
5.862,0.005
5.864,0.015
5.866,0.015
5.868,0.01
5.87,-0.005
5.872,-0.02
5.874,-0.03
5.876,-0.035
5.878,-0.03
5.88,-0.01
5.882,0.02
5.884,0.06
5.886,0.115
5.888,0.175
5.89,0.245
5.892,0.32
5.894,0.4
5.896,0.475
5.898,0.545
5.9,0.595
5.902,0.625
5.904,0.625
5.906,0.595
5.908,0.53
5.91,0.435
5.912,0.325
5.914,0.205
5.916,0.1
5.918,0.015
5.92,-0.045
5.922,-0.08
5.924,-0.085
5.926,-0.075
5.928,-0.055
5.93,-0.04
5.932,-0.035
5.934,-0.04
5.936,-0.055
5.938,-0.075
5.94,-0.09
5.942,-0.095
5.944,-0.095
5.946,-0.08
5.948,-0.055
5.95,-0.035
5.952,-0.015
5.954,-0.005
5.956,-0.005
5.958,-0.015
5.96,-0.03
5.962,-0.04
5.964,-0.045
5.966,-0.045
5.968,-0.03
5.97,-0.015
5.972,0
5.974,0.005
5.976,0.005
5.978,-0.005
5.98,-0.025
5.982,-0.045
5.984,-0.06
5.986,-0.07
5.988,-0.07
5.99,-0.055
5.992,-0.035
5.994,-0.015
5.996,0.005
5.998,0.015
6,0.015
6.002,0.005
6.004,-0.01
6.006,-0.02
6.008,-0.035
6.01,-0.035
6.012,-0.035
6.014,-0.03
6.016,-0.02
6.018,-0.01
6.02,-0.005
6.022,-0.005
6.024,-0.01
6.026,-0.02
6.028,-0.025
6.03,-0.03
6.032,-0.03
6.034,-0.025
6.036,-0.015
6.038,0
6.04,0.01
6.042,0.02
6.044,0.025
6.046,0.02
6.048,0.01
6.05,0
6.052,-0.015
6.054,-0.025
6.056,-0.03
6.058,-0.025
6.06,-0.015
6.062,0
6.064,0.02
6.066,0.04
6.068,0.055
6.07,0.07
6.072,0.075
6.074,0.075
6.076,0.07
6.078,0.06
6.08,0.05
6.082,0.04
6.084,0.035
6.086,0.03
6.088,0.03
6.09,0.035
6.092,0.045
6.094,0.05
6.096,0.065
6.098,0.075
6.1,0.09
6.102,0.105
6.104,0.12
6.106,0.135
6.108,0.145
6.11,0.15
6.112,0.155
6.114,0.15
6.116,0.14
6.118,0.13
6.12,0.115
6.122,0.11
6.124,0.105
6.126,0.11
6.128,0.115
6.13,0.125
6.132,0.13
6.134,0.135
6.136,0.135
6.138,0.13
6.14,0.12
6.142,0.105
6.144,0.1
6.146,0.095
6.148,0.1
6.15,0.105
6.152,0.12
6.154,0.135
6.156,0.145
6.158,0.15
6.16,0.15
6.162,0.145
6.164,0.13
6.166,0.115
6.168,0.1
6.17,0.09
6.172,0.08
6.174,0.075
6.176,0.07
6.178,0.07
6.18,0.065
6.182,0.06
6.184,0.05
6.186,0.04
6.188,0.03
6.19,0.025
6.192,0.025
6.194,0.025
6.196,0.025
6.198,0.03
6.2,0.025
6.202,0.025
6.204,0.015
6.206,0.005
6.208,-0.005
6.21,-0.015
6.212,-0.025
6.214,-0.03
6.216,-0.035
6.218,-0.035
6.22,-0.035
6.222,-0.035
6.224,-0.04
6.226,-0.045
6.228,-0.05
6.23,-0.055
6.232,-0.055
6.234,-0.05
6.236,-0.04
6.238,-0.03
6.24,-0.015
6.242,0
6.244,0.005
6.246,0.01
6.248,0.005
6.25,-0.005
6.252,-0.02
6.254,-0.035
6.256,-0.05
6.258,-0.06
6.26,-0.065
6.262,-0.065
6.264,-0.07
6.266,-0.07
6.268,-0.07
6.27,-0.075
6.272,-0.075
6.274,-0.075
6.276,-0.07
6.278,-0.065
6.28,-0.05
6.282,-0.035
6.284,-0.02
6.286,-0.01
6.288,0
6.29,0
6.292,-0.01
6.294,-0.015
6.296,-0.025
6.298,-0.03
6.3,-0.03
6.302,-0.025
6.304,-0.015
6.306,0
6.308,0.01
6.31,0.015
6.312,0.01
6.314,0
6.316,-0.02
6.318,-0.035
6.32,-0.055
6.322,-0.06
6.324,-0.065
6.326,-0.055
6.328,-0.045
6.33,-0.025
6.332,-0.015
6.334,-0.005
6.336,0
6.338,-0.005
6.34,-0.02
6.342,-0.03
6.344,-0.045
6.346,-0.06
6.348,-0.065
6.35,-0.07
6.352,-0.07
6.354,-0.065
6.356,-0.055
6.358,-0.05
6.36,-0.045
6.362,-0.04
6.364,-0.04
6.366,-0.045
6.368,-0.05
6.37,-0.055
6.372,-0.065
6.374,-0.07
6.376,-0.07
6.378,-0.065
6.38,-0.055
6.382,-0.04
6.384,-0.03
6.386,-0.02
6.388,-0.01
6.39,-0.015
6.392,-0.02
6.394,-0.035
6.396,-0.05
6.398,-0.065
6.4,-0.075
6.402,-0.08
6.404,-0.08
6.406,-0.07
6.408,-0.055
6.41,-0.04
6.412,-0.02
6.414,-0.01
6.416,0
6.418,0
6.42,0
6.422,-0.01
6.424,-0.02
6.426,-0.03
6.428,-0.045
6.43,-0.055
6.432,-0.065
6.434,-0.07
6.436,-0.075
6.438,-0.075
6.44,-0.07
6.442,-0.065
6.444,-0.055
6.446,-0.05
6.448,-0.04
6.45,-0.04
6.452,-0.04
6.454,-0.045
6.456,-0.055
6.458,-0.065
6.46,-0.075
6.462,-0.085
6.464,-0.085
6.466,-0.08
6.468,-0.07
6.47,-0.06
6.472,-0.045
6.474,-0.035
6.476,-0.03
6.478,-0.025
6.48,-0.025
6.482,-0.03
6.484,-0.03
6.486,-0.03
6.488,-0.02
6.49,-0.01
6.492,0
6.494,0.015
6.496,0.025
6.498,0.03
6.5,0.03
6.502,0.025
6.504,0.02
6.506,0.01
6.508,0
6.51,0
6.512,0
6.514,0.005
6.516,0.015
6.518,0.025
6.52,0.03
6.522,0.03
6.524,0.03
6.526,0.025
6.528,0.015
6.53,0
6.532,-0.01
6.534,-0.025
6.536,-0.035
6.538,-0.045
6.54,-0.055
6.542,-0.065
6.544,-0.075
6.546,-0.085
6.548,-0.095
6.55,-0.105
6.552,-0.105
6.554,-0.105
6.556,-0.095
6.558,-0.085
6.56,-0.07
6.562,-0.055
6.564,-0.04
6.566,-0.035
6.568,-0.03
6.57,-0.035
6.572,-0.05
6.574,-0.065
6.576,-0.08
6.578,-0.095
6.58,-0.1
6.582,-0.1
6.584,-0.09
6.586,-0.07
6.588,-0.045
6.59,-0.015
6.592,0.02
6.594,0.065
6.596,0.11
6.598,0.165
6.6,0.235
6.602,0.31
6.604,0.4
6.606,0.49
6.608,0.575
6.61,0.64
6.612,0.68
6.614,0.675
6.616,0.625
6.618,0.535
6.62,0.41
6.622,0.265
6.624,0.115
6.626,-0.015
6.628,-0.12
6.63,-0.185
6.632,-0.21
6.634,-0.2
6.636,-0.165
6.638,-0.115
6.64,-0.07
6.642,-0.03
6.644,-0.01
6.646,-0.005
6.648,-0.015
6.65,-0.03
6.652,-0.05
6.654,-0.065
6.656,-0.075
6.658,-0.075
6.66,-0.07
6.662,-0.065
6.664,-0.065
6.666,-0.06
6.668,-0.065
6.67,-0.075
6.672,-0.08
6.674,-0.09
6.676,-0.095
6.678,-0.1
6.68,-0.1
6.682,-0.095
6.684,-0.09
6.686,-0.08
6.688,-0.075
6.69,-0.065
6.692,-0.055
6.694,-0.045
6.696,-0.035
6.698,-0.025
6.7,-0.025
6.702,-0.03
6.704,-0.04
6.706,-0.055
6.708,-0.07
6.71,-0.085
6.712,-0.1
6.714,-0.105
6.716,-0.11
6.718,-0.1
6.72,-0.09
6.722,-0.075
6.724,-0.06
6.726,-0.05
6.728,-0.045
6.73,-0.04
6.732,-0.04
6.734,-0.04
6.736,-0.04
6.738,-0.04
6.74,-0.04
6.742,-0.04
6.744,-0.045
6.746,-0.045
6.748,-0.05
6.75,-0.055
6.752,-0.055
6.754,-0.055
6.756,-0.055
6.758,-0.05
6.76,-0.04
6.762,-0.03
6.764,-0.025
6.766,-0.02
6.768,-0.02
6.77,-0.02
6.772,-0.025
6.774,-0.025
6.776,-0.02
6.778,-0.01
6.78,0
6.782,0.015
6.784,0.03
6.786,0.04
6.788,0.045
6.79,0.045
6.792,0.035
6.794,0.02
6.796,0.005
6.798,-0.01
6.8,-0.015
6.802,-0.02
6.804,-0.015
6.806,-0.005
6.808,0.005
6.81,0.02
6.812,0.03
6.814,0.04
6.816,0.045
6.818,0.05
6.82,0.05
6.822,0.05
6.824,0.055
6.826,0.055
6.828,0.06
6.83,0.07
6.832,0.075
6.834,0.085
6.836,0.09
6.838,0.095
6.84,0.1
6.842,0.1
6.844,0.095
6.846,0.095
6.848,0.09
6.85,0.085
6.852,0.085
6.854,0.085
6.856,0.08
6.858,0.08
6.86,0.08
6.862,0.075
6.864,0.07
6.866,0.065
6.868,0.055
6.87,0.05
6.872,0.04
6.874,0.04
6.876,0.035
6.878,0.035
6.88,0.04
6.882,0.035
6.884,0.035
6.886,0.03
6.888,0.015
6.89,0
6.892,-0.015
6.894,-0.035
6.896,-0.055
6.898,-0.065
6.9,-0.075
6.902,-0.075
6.904,-0.07
6.906,-0.06
6.908,-0.05
6.91,-0.04
6.912,-0.03
6.914,-0.025
6.916,-0.025
6.918,-0.025
6.92,-0.03
6.922,-0.04
6.924,-0.05
6.926,-0.06
6.928,-0.07
6.93,-0.08
6.932,-0.085
6.934,-0.085
6.936,-0.085
6.938,-0.08
6.94,-0.075
6.942,-0.075
6.944,-0.07
6.946,-0.075
6.948,-0.075
6.95,-0.08
6.952,-0.085
6.954,-0.09
6.956,-0.085
6.958,-0.08
6.96,-0.075
6.962,-0.065
6.964,-0.06
6.966,-0.065
6.968,-0.07
6.97,-0.085
6.972,-0.1
6.974,-0.115
6.976,-0.125
6.978,-0.125
6.98,-0.115
6.982,-0.1
6.984,-0.08
6.986,-0.06
6.988,-0.045
6.99,-0.04
6.992,-0.04
6.994,-0.05
6.996,-0.065
6.998,-0.085
7,-0.095
7.002,-0.095
7.004,-0.09
7.006,-0.08
7.008,-0.065
7.01,-0.05
7.012,-0.04
7.014,-0.04
7.016,-0.045
7.018,-0.055
7.02,-0.065
7.022,-0.08
7.024,-0.09
7.026,-0.09
7.028,-0.09
7.03,-0.08
7.032,-0.07
7.034,-0.06
7.036,-0.055
7.038,-0.055
7.04,-0.055
7.042,-0.055
7.044,-0.065
7.046,-0.07
7.048,-0.075
7.05,-0.075
7.052,-0.08
7.054,-0.08
7.056,-0.08
7.058,-0.08
7.06,-0.075
7.062,-0.075
7.064,-0.07
7.066,-0.065
7.068,-0.06
7.07,-0.055
7.072,-0.055
7.074,-0.06
7.076,-0.065
7.078,-0.07
7.08,-0.08
7.082,-0.085
7.084,-0.09
7.086,-0.09
7.088,-0.09
7.09,-0.085
7.092,-0.075
7.094,-0.07
7.096,-0.065
7.098,-0.06
7.1,-0.06
7.102,-0.06
7.104,-0.055
7.106,-0.055
7.108,-0.05
7.11,-0.045
7.112,-0.04
7.114,-0.04
7.116,-0.04
7.118,-0.05
7.12,-0.06
7.122,-0.075
7.124,-0.095
7.126,-0.11
7.128,-0.125
7.13,-0.13
7.132,-0.135
7.134,-0.125
7.136,-0.115
7.138,-0.1
7.14,-0.085
7.142,-0.07
7.144,-0.055
7.146,-0.05
7.148,-0.04
7.15,-0.035
7.152,-0.03
7.154,-0.025
7.156,-0.02
7.158,-0.01
7.16,0
7.162,0.005
7.164,0.01
7.166,0.015
7.168,0.015
7.17,0.015
7.172,0.01
7.174,0.01
7.176,0.01
7.178,0.01
7.18,0.015
7.182,0.02
7.184,0.025
7.186,0.03
7.188,0.03
7.19,0.025
7.192,0.01
7.194,-0.005
7.196,-0.025
7.198,-0.045
7.2,-0.06
7.202,-0.075
7.204,-0.08
7.206,-0.08
7.208,-0.075
7.21,-0.065
7.212,-0.055
7.214,-0.045
7.216,-0.04
7.218,-0.04
7.22,-0.05
7.222,-0.065
7.224,-0.085
7.226,-0.105
7.228,-0.12
7.23,-0.13
7.232,-0.13
7.234,-0.125
7.236,-0.115
7.238,-0.1
7.24,-0.09
7.242,-0.08
7.244,-0.075
7.246,-0.075
7.248,-0.08
7.25,-0.09
7.252,-0.095
7.254,-0.095
7.256,-0.09
7.258,-0.08
7.26,-0.05
7.262,-0.015
7.264,0.04
7.266,0.11
7.268,0.19
7.27,0.28
7.272,0.38
7.274,0.475
7.276,0.56
7.278,0.625
7.28,0.655
7.282,0.65
7.284,0.605
7.286,0.52
7.288,0.41
7.29,0.285
7.292,0.16
7.294,0.045
7.296,-0.05
7.298,-0.115
7.3,-0.15
7.302,-0.155
7.304,-0.145
7.306,-0.125
7.308,-0.1
7.31,-0.08
7.312,-0.065
7.314,-0.055
7.316,-0.055
7.318,-0.06
7.32,-0.06
7.322,-0.065
7.324,-0.07
7.326,-0.07
7.328,-0.07
7.33,-0.065
7.332,-0.065
7.334,-0.06
7.336,-0.055
7.338,-0.05
7.34,-0.05
7.342,-0.05
7.344,-0.055
7.346,-0.06
7.348,-0.075
7.35,-0.085
7.352,-0.1
7.354,-0.11
7.356,-0.115
7.358,-0.115
7.36,-0.105
7.362,-0.09
7.364,-0.07
7.366,-0.055
7.368,-0.04
7.37,-0.03
7.372,-0.025
7.374,-0.03
7.376,-0.04
7.378,-0.055
7.38,-0.065
7.382,-0.075
7.384,-0.08
7.386,-0.075
7.388,-0.065
7.39,-0.055
7.392,-0.045
7.394,-0.035
7.396,-0.035
7.398,-0.035
7.4,-0.04
7.402,-0.045
7.404,-0.045
7.406,-0.04
7.408,-0.035
7.41,-0.025
7.412,-0.01
7.414,0
7.416,0.005
7.418,0.01
7.42,0.005
7.422,0
7.424,-0.01
7.426,-0.015
7.428,-0.015
7.43,-0.015
7.432,-0.005
7.434,0.005
7.436,0.015
7.438,0.02
7.44,0.025
7.442,0.025
7.444,0.025
7.446,0.02
7.448,0.02
7.45,0.02
7.452,0.02
7.454,0.025
7.456,0.03
7.458,0.03
7.46,0.03
7.462,0.03
7.464,0.025
7.466,0.015
7.468,0.015
7.47,0.015
7.472,0.02
7.474,0.03
7.476,0.045
7.478,0.06
7.48,0.075
7.482,0.085
7.484,0.095
7.486,0.1
7.488,0.105
7.49,0.105
7.492,0.115
7.494,0.12
7.496,0.135
7.498,0.145
7.5,0.15
7.502,0.155
7.504,0.155
7.506,0.15
7.508,0.14
7.51,0.125
7.512,0.115
7.514,0.11
7.516,0.105
7.518,0.11
7.52,0.115
7.522,0.125
7.524,0.13
7.526,0.135
7.528,0.135
7.53,0.13
7.532,0.12
7.534,0.105
7.536,0.095
7.538,0.08
7.54,0.07
7.542,0.065
7.544,0.06
7.546,0.055
7.548,0.055
7.55,0.055
7.552,0.05
7.554,0.05
7.556,0.045
7.558,0.04
7.56,0.04
7.562,0.035
7.564,0.035
7.566,0.03
7.568,0.035
7.57,0.035
7.572,0.03
7.574,0.025
7.576,0.015
7.578,0
7.58,-0.02
7.582,-0.04
7.584,-0.06
7.586,-0.07
7.588,-0.075
7.59,-0.065
7.592,-0.05
7.594,-0.025
7.596,-0.005
7.598,0.02
7.6,0.03
7.602,0.035
7.604,0.025
7.606,0.01
7.608,-0.01
7.61,-0.035
7.612,-0.055
7.614,-0.065
7.616,-0.065
7.618,-0.06
7.62,-0.05
7.622,-0.035
7.624,-0.02
7.626,-0.01
7.628,0
7.63,0.01
7.632,0.01
7.634,0.01
7.636,0.005
7.638,0
7.64,-0.005
7.642,-0.01
7.644,-0.02
7.646,-0.025
7.648,-0.03
7.65,-0.035
7.652,-0.035
7.654,-0.03
7.656,-0.02
7.658,-0.015
7.66,-0.005
7.662,0
7.664,0
7.666,-0.005
7.668,-0.01
7.67,-0.015
7.672,-0.02
7.674,-0.02
7.676,-0.02
7.678,-0.015
7.68,-0.005
7.682,0
7.684,0.01
7.686,0.01
7.688,0.01
7.69,0.005
7.692,-0.005
7.694,-0.01
7.696,-0.02
7.698,-0.02
7.7,-0.015
7.702,-0.01
7.704,0
7.706,0.005
7.708,0.01
7.71,0.015
7.712,0.01
7.714,0.005
7.716,-0.005
7.718,-0.01
7.72,-0.015
7.722,-0.015
7.724,-0.005
7.726,0
7.728,0.01
7.73,0.02
7.732,0.03
7.734,0.03
7.736,0.025
7.738,0.02
7.74,0.01
7.742,0
7.744,-0.01
7.746,-0.015
7.748,-0.015
7.75,-0.015
7.752,-0.01
7.754,0
7.756,0
7.758,0.005
7.76,0
7.762,0
7.764,-0.005
7.766,-0.01
7.768,-0.015
7.77,-0.015
7.772,-0.015
7.774,-0.015
7.776,-0.015
7.778,-0.015
7.78,-0.02
7.782,-0.02
7.784,-0.02
7.786,-0.02
7.788,-0.015
7.79,-0.005
7.792,0.005
7.794,0.02
7.796,0.03
7.798,0.035
7.8,0.035
7.802,0.03
7.804,0.015
7.806,0.005
7.808,-0.005
7.81,-0.005
7.812,0.005
7.814,0.02
7.816,0.045
7.818,0.07
7.82,0.09
7.822,0.105
7.824,0.11
7.826,0.105
7.828,0.095
7.83,0.075
7.832,0.05
7.834,0.03
7.836,0.01
7.838,0
7.84,-0.01
7.842,-0.015
7.844,-0.02
7.846,-0.025
7.848,-0.025
7.85,-0.03
7.852,-0.035
7.854,-0.035
7.856,-0.035
7.858,-0.03
7.86,-0.025
7.862,-0.02
7.864,-0.01
7.866,-0.005
7.868,0.005
7.87,0.015
7.872,0.02
7.874,0.025
7.876,0.025
7.878,0.025
7.88,0.01
7.882,-0.005
7.884,-0.03
7.886,-0.055
7.888,-0.08
7.89,-0.1
7.892,-0.105
7.894,-0.105
7.896,-0.09
7.898,-0.065
7.9,-0.03
7.902,0.005
7.904,0.035
7.906,0.07
7.908,0.1
7.91,0.13
7.912,0.17
7.914,0.22
7.916,0.285
7.918,0.36
7.92,0.44
7.922,0.52
7.924,0.58
7.926,0.615
7.928,0.615
7.93,0.57
7.932,0.49
7.934,0.385
7.936,0.26
7.938,0.135
7.94,0.025
7.942,-0.055
7.944,-0.11
7.946,-0.125
7.948,-0.12
7.95,-0.1
7.952,-0.075
7.954,-0.055
7.956,-0.045
7.958,-0.05
7.96,-0.06
7.962,-0.075
7.964,-0.085
7.966,-0.095
7.968,-0.09
7.97,-0.08
7.972,-0.065
7.974,-0.045
7.976,-0.035
7.978,-0.025
7.98,-0.025
7.982,-0.025
7.984,-0.03
7.986,-0.035
7.988,-0.035
7.99,-0.035
7.992,-0.03
7.994,-0.02
7.996,-0.02
7.998,-0.02
8,-0.025
8.002,-0.035
8.004,-0.04
8.006,-0.045
8.008,-0.045
8.01,-0.04
8.012,-0.025
8.014,-0.01
8.016,0
8.018,0.005
8.02,0.01
8.022,0.005
8.024,-0.005
8.026,-0.015
8.028,-0.025
8.03,-0.03
8.032,-0.03
8.034,-0.025
8.036,-0.02
8.038,-0.015
8.04,-0.015
8.042,-0.02
8.044,-0.025
8.046,-0.03
8.048,-0.03
8.05,-0.03
8.052,-0.025
8.054,-0.02
8.056,-0.01
8.058,0
8.06,0.005
8.062,0.005
8.064,-0.005
8.066,-0.01
8.068,-0.02
8.07,-0.02
8.072,-0.02
8.074,-0.01
8.076,0.01
8.078,0.025
8.08,0.045
8.082,0.055
8.084,0.055
8.086,0.05
8.088,0.035
8.09,0.015
8.092,0
8.094,-0.015
8.096,-0.025
8.098,-0.02
8.1,-0.005
8.102,0.015
8.104,0.04
8.106,0.065
8.108,0.08
8.11,0.095
8.112,0.095
8.114,0.095
8.116,0.085
8.118,0.075
8.12,0.065
8.122,0.06
8.124,0.06
8.126,0.07
8.128,0.08
8.13,0.095
8.132,0.11
8.134,0.12
8.136,0.125
8.138,0.125
8.14,0.115
8.142,0.105
8.144,0.095
8.146,0.085
8.148,0.08
8.15,0.08
8.152,0.085
8.154,0.09
8.156,0.1
8.158,0.105
8.16,0.11
8.162,0.11
8.164,0.11
8.166,0.105
8.168,0.1
8.17,0.095
8.172,0.085
8.174,0.08
8.176,0.08
8.178,0.08
8.18,0.08
8.182,0.085
8.184,0.095
8.186,0.105
8.188,0.12
8.19,0.13
8.192,0.13
8.194,0.13
8.196,0.115
8.198,0.095
8.2,0.065
8.202,0.03
8.204,-0.005
8.206,-0.04
8.208,-0.06
8.21,-0.075
8.212,-0.075
8.214,-0.065
8.216,-0.05
8.218,-0.025
8.22,-0.005
8.222,0.01
8.224,0.015
8.226,0.015
8.228,0.005
8.23,-0.01
8.232,-0.025
8.234,-0.04
8.236,-0.055
8.238,-0.06
8.24,-0.06
8.242,-0.05
8.244,-0.04
8.246,-0.03
8.248,-0.02
8.25,-0.015
8.252,-0.02
8.254,-0.025
8.256,-0.035
8.258,-0.05
8.26,-0.06
8.262,-0.065
8.264,-0.065
8.266,-0.06
8.268,-0.055
8.27,-0.045
8.272,-0.035
8.274,-0.025
8.276,-0.025
8.278,-0.025
8.28,-0.03
8.282,-0.04
8.284,-0.05
8.286,-0.055
8.288,-0.06
8.29,-0.065
8.292,-0.06
8.294,-0.055
8.296,-0.05
8.298,-0.045
8.3,-0.04
8.302,-0.04
8.304,-0.045
8.306,-0.055
8.308,-0.07
8.31,-0.085
8.312,-0.1
8.314,-0.11
8.316,-0.11
8.318,-0.1
8.32,-0.08
8.322,-0.055
8.324,-0.025
8.326,0
8.328,0.02
8.33,0.03
8.332,0.025
8.334,0.01
8.336,-0.015
8.338,-0.035
8.34,-0.055
8.342,-0.065
8.344,-0.065
8.346,-0.055
8.348,-0.04
8.35,-0.025
8.352,-0.015
8.354,-0.015
8.356,-0.025
8.358,-0.04
8.36,-0.065
8.362,-0.08
8.364,-0.09
8.366,-0.09
8.368,-0.08
8.37,-0.06
8.372,-0.035
8.374,-0.015
8.376,0
8.378,0.005
8.38,0
8.382,-0.01
8.384,-0.025
8.386,-0.04
8.388,-0.05
8.39,-0.06
8.392,-0.06
8.394,-0.06
8.396,-0.065
8.398,-0.065
8.4,-0.07
8.402,-0.075
8.404,-0.075
8.406,-0.075
8.408,-0.065
8.41,-0.055
8.412,-0.045
8.414,-0.035
8.416,-0.025
8.418,-0.025
8.42,-0.035
8.422,-0.05
8.424,-0.065
8.426,-0.085
8.428,-0.095
8.43,-0.1
8.432,-0.1
8.434,-0.09
8.436,-0.08
8.438,-0.065
8.44,-0.055
8.442,-0.045
8.444,-0.04
8.446,-0.04
8.448,-0.04
8.45,-0.04
8.452,-0.04
8.454,-0.035
8.456,-0.035
8.458,-0.03
8.46,-0.035
8.462,-0.04
8.464,-0.045
8.466,-0.055
8.468,-0.065
8.47,-0.07
8.472,-0.075
8.474,-0.07
8.476,-0.065
8.478,-0.05
8.48,-0.035
8.482,-0.02
8.484,0
8.486,0.015
8.488,0.035
8.49,0.045
8.492,0.055
8.494,0.06
8.496,0.06
8.498,0.055
8.5,0.04
8.502,0.02
8.504,0
8.506,-0.02
8.508,-0.035
8.51,-0.045
8.512,-0.05
8.514,-0.045
8.516,-0.04
8.518,-0.035
8.52,-0.03
8.522,-0.03
8.524,-0.035
8.526,-0.045
8.528,-0.06
8.53,-0.075
8.532,-0.085
8.534,-0.09
8.536,-0.09
8.538,-0.09
8.54,-0.08
8.542,-0.07
8.544,-0.065
8.546,-0.06
8.548,-0.055
8.55,-0.055
8.552,-0.06
8.554,-0.06
8.556,-0.065
8.558,-0.06
8.56,-0.06
8.562,-0.055
8.564,-0.05
8.566,-0.04
8.568,-0.035
8.57,-0.025
8.572,-0.02
8.574,-0.005
8.576,0.02
8.578,0.05
8.58,0.1
8.582,0.16
8.584,0.24
8.586,0.325
8.588,0.42
8.59,0.505
8.592,0.575
8.594,0.62
8.596,0.63
8.598,0.605
8.6,0.545
8.602,0.455
8.604,0.345
8.606,0.225
8.608,0.115
8.61,0.015
8.612,-0.055
8.614,-0.105
8.616,-0.13
8.618,-0.135
8.62,-0.125
8.622,-0.11
8.624,-0.1
8.626,-0.09
8.628,-0.085
8.63,-0.08
8.632,-0.08
8.634,-0.08
8.636,-0.08
8.638,-0.075
8.64,-0.07
8.642,-0.07
8.644,-0.065
8.646,-0.065
8.648,-0.065
8.65,-0.06
8.652,-0.055
8.654,-0.045
8.656,-0.035
8.658,-0.02
8.66,-0.015
8.662,-0.01
8.664,-0.015
8.666,-0.03
8.668,-0.05
8.67,-0.075
8.672,-0.1
8.674,-0.115
8.676,-0.12
8.678,-0.115
8.68,-0.095
8.682,-0.07
8.684,-0.045
8.686,-0.025
8.688,-0.015
8.69,-0.02
8.692,-0.035
8.694,-0.055
8.696,-0.075
8.698,-0.09
8.7,-0.095
8.702,-0.09
8.704,-0.075
8.706,-0.06
8.708,-0.045
8.71,-0.03
8.712,-0.03
8.714,-0.03
8.716,-0.04
8.718,-0.045
8.72,-0.05
8.722,-0.05
8.724,-0.045
8.726,-0.035
8.728,-0.025
8.73,-0.02
8.732,-0.02
8.734,-0.03
8.736,-0.04
8.738,-0.055
8.74,-0.07
8.742,-0.075
8.744,-0.07
8.746,-0.06
8.748,-0.04
8.75,-0.025
8.752,-0.01
8.754,-0.005
8.756,-0.005
8.758,-0.01
8.76,-0.025
8.762,-0.035
8.764,-0.045
8.766,-0.045
8.768,-0.045
8.77,-0.035
8.772,-0.025
8.774,-0.015
8.776,-0.005
8.778,-0.005
8.78,-0.005
8.782,-0.005
8.784,-0.01
8.786,-0.005
8.788,0
8.79,0.01
8.792,0.025
8.794,0.04
8.796,0.06
8.798,0.075
8.8,0.085
8.802,0.095
8.804,0.095
8.806,0.095
8.808,0.095
8.81,0.085
8.812,0.08
8.814,0.07
8.816,0.06
8.818,0.05
8.82,0.05
8.822,0.05
8.824,0.055
8.826,0.065
8.828,0.08
8.83,0.09
8.832,0.095
8.834,0.1
8.836,0.1
8.838,0.095
8.84,0.085
8.842,0.075
8.844,0.065
8.846,0.06
8.848,0.055
8.85,0.05
8.852,0.05
8.854,0.05
8.856,0.045
8.858,0.035
8.86,0.025
8.862,0.015
8.864,0
8.866,-0.01
8.868,-0.02
8.87,-0.02
8.872,-0.02
8.874,-0.02
8.876,-0.01
8.878,0
8.88,0.005
8.882,0.01
8.884,0.015
8.886,0.01
8.888,0
8.89,-0.015
8.892,-0.03
8.894,-0.045
8.896,-0.06
8.898,-0.07
8.9,-0.075
8.902,-0.075
8.904,-0.07
8.906,-0.055
8.908,-0.04
8.91,-0.03
8.912,-0.02
8.914,-0.015
8.916,-0.02
8.918,-0.03
8.92,-0.045
8.922,-0.065
8.924,-0.08
8.926,-0.1
8.928,-0.11
8.93,-0.11
8.932,-0.11
8.934,-0.1
8.936,-0.09
8.938,-0.075
8.94,-0.06
8.942,-0.045
8.944,-0.035
8.946,-0.025
8.948,-0.02
8.95,-0.02
8.952,-0.02
8.954,-0.025
8.956,-0.035
8.958,-0.045
8.96,-0.06
8.962,-0.07
8.964,-0.08
8.966,-0.085
8.968,-0.085
8.97,-0.08
8.972,-0.075
8.974,-0.065
8.976,-0.055
8.978,-0.045
8.98,-0.045
8.982,-0.045
8.984,-0.05
8.986,-0.055
8.988,-0.06
8.99,-0.065
8.992,-0.065
8.994,-0.06
8.996,-0.055
8.998,-0.045
9,-0.035
9.002,-0.025
9.004,-0.015
9.006,-0.01
9.008,-0.005
9.01,-0.005
9.012,-0.005
9.014,-0.005
9.016,-0.005
9.018,-0.005
9.02,-0.005
9.022,-0.01
9.024,-0.02
9.026,-0.03
9.028,-0.04
9.03,-0.055
9.032,-0.065
9.034,-0.075
9.036,-0.08
9.038,-0.085
9.04,-0.08
9.042,-0.075
9.044,-0.065
9.046,-0.055
9.048,-0.05
9.05,-0.05
9.052,-0.05
9.054,-0.055
9.056,-0.065
9.058,-0.065
9.06,-0.065
9.062,-0.06
9.064,-0.05
9.066,-0.035
9.068,-0.025
9.07,-0.02
9.072,-0.015
9.074,-0.02
9.076,-0.03
9.078,-0.035
9.08,-0.045
9.082,-0.045
9.084,-0.04
9.086,-0.035
9.088,-0.03
9.09,-0.03
9.092,-0.03
9.094,-0.04
9.096,-0.055
9.098,-0.075
9.1,-0.085
9.102,-0.09
9.104,-0.085
9.106,-0.075
9.108,-0.055
9.11,-0.04
9.112,-0.03
9.114,-0.025
9.116,-0.035
9.118,-0.055
9.12,-0.07
9.122,-0.085
9.124,-0.095
9.126,-0.085
9.128,-0.07
9.13,-0.045
9.132,-0.02
9.134,0.005
9.136,0.015
9.138,0.015
9.14,0.005
9.142,-0.015
9.144,-0.03
9.146,-0.035
9.148,-0.035
9.15,-0.02
9.152,0
9.154,0.025
9.156,0.045
9.158,0.055
9.16,0.055
9.162,0.045
9.164,0.03
9.166,0.01
9.168,-0.01
9.17,-0.02
9.172,-0.025
9.174,-0.03
9.176,-0.03
9.178,-0.035
9.18,-0.04
9.182,-0.055
9.184,-0.065
9.186,-0.08
9.188,-0.095
9.19,-0.105
9.192,-0.105
9.194,-0.1
9.196,-0.09
9.198,-0.08
9.2,-0.07
9.202,-0.06
9.204,-0.055
9.206,-0.045
9.208,-0.04
9.21,-0.035
9.212,-0.03
9.214,-0.03
9.216,-0.03
9.218,-0.035
9.22,-0.045
9.222,-0.06
9.224,-0.07
9.226,-0.08
9.228,-0.08
9.23,-0.075
9.232,-0.06
9.234,-0.035
9.236,-0.01
9.238,0.015
9.24,0.045
9.242,0.075
9.244,0.11
9.246,0.155
9.248,0.215
9.25,0.29
9.252,0.375
9.254,0.465
9.256,0.55
9.258,0.62
9.26,0.66
9.262,0.66
9.264,0.615
9.266,0.53
9.268,0.415
9.27,0.28
9.272,0.15
9.274,0.035
9.276,-0.055
9.278,-0.105
9.28,-0.125
9.282,-0.11
9.284,-0.08
9.286,-0.045
9.288,-0.015
9.29,-0.005
9.292,-0.005
9.294,-0.025
9.296,-0.06
9.298,-0.095
9.3,-0.125
9.302,-0.14
9.304,-0.145
9.306,-0.135
9.308,-0.11
9.31,-0.085
9.312,-0.055
9.314,-0.03
9.316,-0.01
9.318,0
9.32,0
9.322,0
9.324,-0.01
9.326,-0.02
9.328,-0.03
9.33,-0.04
9.332,-0.05
9.334,-0.065
9.336,-0.075
9.338,-0.08
9.34,-0.09
9.342,-0.09
9.344,-0.09
9.346,-0.08
9.348,-0.07
9.35,-0.06
9.352,-0.045
9.354,-0.035
9.356,-0.025
9.358,-0.02
9.36,-0.015
9.362,-0.015
9.364,-0.015
9.366,-0.02
9.368,-0.025
9.37,-0.025
9.372,-0.035
9.374,-0.04
9.376,-0.045
9.378,-0.05
9.38,-0.055
9.382,-0.06
9.384,-0.055
9.386,-0.05
9.388,-0.04
9.39,-0.03
9.392,-0.02
9.394,-0.01
9.396,-0.005
9.398,-0.005
9.4,-0.005
9.402,-0.005
9.404,-0.01
9.406,-0.01
9.408,-0.005
9.41,0
9.412,0.005
9.414,0.01
9.416,0.015
9.418,0.02
9.42,0.015
9.422,0.01
9.424,0.005
9.426,0
9.428,-0.005
9.43,-0.01
9.432,-0.01
9.434,-0.01
9.436,-0.01
9.438,-0.005
9.44,-0.005
9.442,0.005
9.444,0.01
9.446,0.02
9.448,0.03
9.45,0.04
9.452,0.045
9.454,0.05
9.456,0.05
9.458,0.045
9.46,0.035
9.462,0.025
9.464,0.015
9.466,0.01
9.468,0.01
9.47,0.02
9.472,0.04
9.474,0.065
9.476,0.095
9.478,0.125
9.48,0.15
9.482,0.165
9.484,0.175
9.486,0.17
9.488,0.16
9.49,0.145
9.492,0.125
9.494,0.11
9.496,0.09
9.498,0.08
9.5,0.07
9.502,0.07
9.504,0.07
9.506,0.07
9.508,0.075
9.51,0.085
9.512,0.09
9.514,0.095
9.516,0.095
9.518,0.09
9.52,0.085
9.522,0.07
9.524,0.055
9.526,0.035
9.528,0.02
9.53,0.005
9.532,-0.005
9.534,-0.005
9.536,-0.005
9.538,0.005
9.54,0.01
9.542,0.015
9.544,0.015
9.546,0.01
9.548,0.005
9.55,-0.005
9.552,-0.015
9.554,-0.025
9.556,-0.025
9.558,-0.025
9.56,-0.015
9.562,-0.005
9.564,0
9.566,0.005
9.568,0.005
9.57,-0.005
9.572,-0.025
9.574,-0.04
9.576,-0.06
9.578,-0.075
9.58,-0.085
9.582,-0.08
9.584,-0.075
9.586,-0.065
9.588,-0.05
9.59,-0.04
9.592,-0.035
9.594,-0.035
9.596,-0.045
9.598,-0.06
9.6,-0.075
9.602,-0.09
9.604,-0.1
9.606,-0.105
9.608,-0.1
9.61,-0.09
9.612,-0.07
9.614,-0.05
9.616,-0.03
9.618,-0.01
9.62,0.005
9.622,0.015
9.624,0.02
9.626,0.015
9.628,0.005
9.63,-0.005
9.632,-0.02
9.634,-0.03
9.636,-0.04
9.638,-0.045
9.64,-0.045
9.642,-0.045
9.644,-0.035
9.646,-0.03
9.648,-0.02
9.65,-0.01
9.652,0
9.654,0.005
9.656,0.005
9.658,0.005
9.66,0
9.662,-0.005
9.664,-0.015
9.666,-0.02
9.668,-0.03
9.67,-0.035
9.672,-0.04
9.674,-0.045
9.676,-0.05
9.678,-0.055
9.68,-0.06
9.682,-0.065
9.684,-0.065
9.686,-0.07
9.688,-0.065
9.69,-0.06
9.692,-0.055
9.694,-0.045
9.696,-0.04
9.698,-0.03
9.7,-0.025
9.702,-0.025
9.704,-0.03
9.706,-0.035
9.708,-0.04
9.71,-0.045
9.712,-0.045
9.714,-0.045
9.716,-0.035
9.718,-0.025
9.72,-0.015
9.722,-0.005
9.724,0
9.726,0
9.728,-0.005
9.73,-0.01
9.732,-0.02
9.734,-0.025
9.736,-0.03
9.738,-0.035
9.74,-0.035
9.742,-0.035
9.744,-0.035
9.746,-0.035
9.748,-0.035
9.75,-0.04
9.752,-0.045
9.754,-0.05
9.756,-0.05
9.758,-0.05
9.76,-0.045
9.762,-0.035
9.764,-0.025
9.766,-0.015
9.768,-0.005
9.77,0
9.772,0
9.774,0
9.776,-0.005
9.778,-0.01
9.78,-0.015
9.782,-0.025
9.784,-0.03
9.786,-0.04
9.788,-0.045
9.79,-0.055
9.792,-0.06
9.794,-0.065
9.796,-0.07
9.798,-0.07
9.8,-0.075
9.802,-0.075
9.804,-0.07
9.806,-0.07
9.808,-0.065
9.81,-0.06
9.812,-0.05
9.814,-0.035
9.816,-0.02
9.818,0
9.82,0.02
9.822,0.035
9.824,0.045
9.826,0.05
9.828,0.05
9.83,0.05
9.832,0.045
9.834,0.04
9.836,0.04
9.838,0.04
9.84,0.05
9.842,0.06
9.844,0.07
9.846,0.075
9.848,0.075
9.85,0.065
9.852,0.05
9.854,0.03
9.856,0.01
9.858,-0.015
9.86,-0.03
9.862,-0.05
9.864,-0.06
9.866,-0.065
9.868,-0.075
9.87,-0.075
9.872,-0.075
9.874,-0.075
9.876,-0.07
9.878,-0.06
9.88,-0.045
9.882,-0.03
9.884,-0.02
9.886,-0.01
9.888,-0.005
9.89,-0.01
9.892,-0.02
9.894,-0.035
9.896,-0.055
9.898,-0.07
9.9,-0.08
9.902,-0.08
9.904,-0.07
9.906,-0.055
9.908,-0.035
9.91,-0.01
9.912,0.01
9.914,0.02
9.916,0.025
9.918,0.02
9.92,0.005
9.922,-0.005
9.924,-0.015
9.926,-0.01
9.928,0.01
9.93,0.055
9.932,0.125
9.934,0.215
9.936,0.32
9.938,0.435
9.94,0.54
9.942,0.63
9.944,0.685
9.946,0.705
9.948,0.68
9.95,0.62
9.952,0.52
9.954,0.4
9.956,0.275
9.958,0.15
9.96,0.045
9.962,-0.035
9.964,-0.09
9.966,-0.115
9.968,-0.115
9.97,-0.1
9.972,-0.075
9.974,-0.05
9.976,-0.025
9.978,-0.015
9.98,-0.01
9.982,-0.02
9.984,-0.03
9.986,-0.045
9.988,-0.06
9.99,-0.07
9.992,-0.07
9.994,-0.07
9.996,-0.06
9.998,-0.045
