0,-0.085
0.002,-0.075
0.004,-0.06
0.006,-0.05
0.008,-0.04
0.01,-0.025
0.012,-0.015
0.014,-0.005
0.016,0.005
0.018,0.015
0.02,0.025
0.022,0.03
0.024,0.035
0.026,0.035
0.028,0.035
0.03,0.025
0.032,0.02
0.034,0.01
0.036,0
0.038,-0.005
0.04,-0.01
0.042,-0.01
0.044,0
0.046,0.01
0.048,0.03
0.05,0.045
0.052,0.06
0.054,0.075
0.056,0.085
0.058,0.09
0.06,0.085
0.062,0.08
0.064,0.075
0.066,0.065
0.068,0.065
0.07,0.07
0.072,0.075
0.074,0.09
0.076,0.105
0.078,0.125
0.08,0.14
0.082,0.15
0.084,0.16
0.086,0.16
0.088,0.16
0.09,0.16
0.092,0.16
0.094,0.16
0.096,0.16
0.098,0.165
0.1,0.17
0.102,0.175
0.104,0.18
0.106,0.18
0.108,0.18
0.11,0.175
0.112,0.17
0.114,0.17
0.116,0.165
0.118,0.165
0.12,0.165
0.122,0.165
0.124,0.17
0.126,0.17
0.128,0.165
0.13,0.16
0.132,0.15
0.134,0.135
0.136,0.125
0.138,0.11
0.14,0.1
0.142,0.085
0.144,0.08
0.146,0.075
0.148,0.07
0.15,0.065
0.152,0.06
0.154,0.055
0.156,0.05
0.158,0.04
0.16,0.03
0.162,0.02
0.164,0.01
0.166,0
0.168,-0.01
0.17,-0.015
0.172,-0.02
0.174,-0.02
0.176,-0.02
0.178,-0.02
0.18,-0.015
0.182,-0.015
0.184,-0.015
0.186,-0.015
0.188,-0.02
0.19,-0.02
0.192,-0.025
0.194,-0.03
0.196,-0.03
0.198,-0.03
0.2,-0.03
0.202,-0.03
0.204,-0.025
0.206,-0.025
0.208,-0.025
0.21,-0.025
0.212,-0.03
0.214,-0.035
0.216,-0.04
0.218,-0.045
0.22,-0.045
0.222,-0.045
0.224,-0.045
0.226,-0.04
0.228,-0.035
0.23,-0.035
0.232,-0.035
0.234,-0.04
0.236,-0.045
0.238,-0.055
0.24,-0.06
0.242,-0.07
0.244,-0.07
0.246,-0.07
0.248,-0.065
0.25,-0.06
0.252,-0.05
0.254,-0.04
0.256,-0.035
0.258,-0.03
0.26,-0.025
0.262,-0.03
0.264,-0.03
0.266,-0.035
0.268,-0.035
0.27,-0.04
0.272,-0.04
0.274,-0.04
0.276,-0.035
0.278,-0.035
0.28,-0.03
0.282,-0.03
0.284,-0.03
0.286,-0.025
0.288,-0.025
0.29,-0.02
0.292,-0.02
0.294,-0.02
0.296,-0.02
0.298,-0.02
0.3,-0.025
0.302,-0.03
0.304,-0.03
0.306,-0.035
0.308,-0.035
0.31,-0.03
0.312,-0.03
0.314,-0.025
0.316,-0.02
0.318,-0.02
0.32,-0.02
0.322,-0.02
0.324,-0.025
0.326,-0.03
0.328,-0.035
0.33,-0.04
0.332,-0.04
0.334,-0.045
0.336,-0.045
0.338,-0.045
0.34,-0.045
0.342,-0.04
0.344,-0.04
0.346,-0.035
0.348,-0.035
0.35,-0.03
0.352,-0.03
0.354,-0.025
0.356,-0.025
0.358,-0.02
0.36,-0.02
0.362,-0.025
0.364,-0.025
0.366,-0.03
0.368,-0.035
0.37,-0.04
0.372,-0.04
0.374,-0.045
0.376,-0.045
0.378,-0.05
0.38,-0.045
0.382,-0.045
0.384,-0.045
0.386,-0.04
0.388,-0.04
0.39,-0.035
0.392,-0.035
0.394,-0.03
0.396,-0.03
0.398,-0.03
0.4,-0.025
0.402,-0.025
0.404,-0.025
0.406,-0.03
0.408,-0.035
0.41,-0.04
0.412,-0.05
0.414,-0.055
0.416,-0.065
0.418,-0.07
0.42,-0.075
0.422,-0.08
0.424,-0.075
0.426,-0.075
0.428,-0.065
0.43,-0.06
0.432,-0.05
0.434,-0.04
0.436,-0.035
0.438,-0.03
0.44,-0.03
0.442,-0.03
0.444,-0.03
0.446,-0.03
0.448,-0.025
0.45,-0.025
0.452,-0.02
0.454,-0.02
0.456,-0.015
0.458,-0.015
0.46,-0.015
0.462,-0.02
0.464,-0.02
0.466,-0.025
0.468,-0.025
0.47,-0.02
0.472,-0.015
0.474,-0.01
0.476,-0.005
0.478,0
0.48,0
0.482,0
0.484,-0.005
0.486,-0.01
0.488,-0.01
0.49,-0.01
0.492,-0.01
0.494,0
0.496,0.015
0.498,0.03
0.5,0.04
0.502,0.045
0.504,0.045
0.506,0.035
0.508,0.02
0.51,0
0.512,-0.02
0.514,-0.035
0.516,-0.045
0.518,-0.045
0.52,-0.045
0.522,-0.035
0.524,-0.025
0.526,-0.02
0.528,-0.015
0.53,-0.015
0.532,-0.02
0.534,-0.025
0.536,-0.035
0.538,-0.045
0.54,-0.05
0.542,-0.055
0.544,-0.055
0.546,-0.05
0.548,-0.05
0.55,-0.045
0.552,-0.04
0.554,-0.04
0.556,-0.035
0.558,-0.04
0.56,-0.04
0.562,-0.045
0.564,-0.045
0.566,-0.05
0.568,-0.05
0.57,-0.055
0.572,-0.055
0.574,-0.055
0.576,-0.055
0.578,-0.055
0.58,-0.055
0.582,-0.055
0.584,-0.055
0.586,-0.055
0.588,-0.055
0.59,-0.05
0.592,-0.05
0.594,-0.05
0.596,-0.05
0.598,-0.045
0.6,-0.045
0.602,-0.045
0.604,-0.04
0.606,-0.03
0.608,-0.025
0.61,-0.01
0.612,0
0.614,0.015
0.616,0.03
0.618,0.04
0.62,0.05
0.622,0.055
0.624,0.05
0.626,0.045
0.628,0.035
0.63,0.03
0.632,0.025
0.634,0.03
0.636,0.04
0.638,0.06
0.64,0.08
0.642,0.1
0.644,0.115
0.646,0.125
0.648,0.115
0.65,0.095
0.652,0.06
0.654,0.01
0.656,-0.045
0.658,-0.1
0.66,-0.15
0.662,-0.19
0.664,-0.215
0.666,-0.225
0.668,-0.215
0.67,-0.195
0.672,-0.165
0.674,-0.13
0.676,-0.095
0.678,-0.065
0.68,-0.04
0.682,-0.025
0.684,-0.015
0.686,-0.01
0.688,-0.015
0.69,-0.02
0.692,-0.025
0.694,-0.03
0.696,-0.035
0.698,-0.04
0.7,-0.04
0.702,-0.04
0.704,-0.035
0.706,-0.035
0.708,-0.03
0.71,-0.03
0.712,-0.025
0.714,-0.025
0.716,-0.025
0.718,-0.025
0.72,-0.025
0.722,-0.025
0.724,-0.025
0.726,-0.025
0.728,-0.02
0.73,-0.015
0.732,-0.015
0.734,-0.01
0.736,-0.01
0.738,-0.01
0.74,-0.005
0.742,-0.005
0.744,-0.005
0.746,0
0.748,0.005
0.75,0.005
0.752,0.01
0.754,0.01
0.756,0.01
0.758,0.005
0.76,0
0.762,-0.005
0.764,-0.01
0.766,-0.01
0.768,-0.01
0.77,-0.01
0.772,-0.005
0.774,0
0.776,0
0.778,0.005
0.78,0.005
0.782,0.005
0.784,0.01
0.786,0.015
0.788,0.02
0.79,0.03
0.792,0.04
0.794,0.05
0.796,0.06
0.798,0.065
0.8,0.065
0.802,0.065
0.804,0.06
0.806,0.055
0.808,0.05
0.81,0.05
0.812,0.05
0.814,0.055
0.816,0.065
0.818,0.075
0.82,0.085
0.822,0.095
0.824,0.1
0.826,0.105
0.828,0.105
0.83,0.105
0.832,0.105
0.834,0.105
0.836,0.105
0.838,0.11
0.84,0.115
0.842,0.12
0.844,0.125
0.846,0.13
0.848,0.135
0.85,0.145
0.852,0.15
0.854,0.155
0.856,0.165
0.858,0.175
0.86,0.185
0.862,0.195
0.864,0.2
0.866,0.205
0.868,0.205
0.87,0.2
0.872,0.195
0.874,0.19
0.876,0.185
0.878,0.185
0.88,0.19
0.882,0.195
0.884,0.205
0.886,0.215
0.888,0.22
0.89,0.22
0.892,0.215
0.894,0.205
0.896,0.19
0.898,0.175
0.9,0.16
0.902,0.15
0.904,0.14
0.906,0.135
0.908,0.13
0.91,0.125
0.912,0.12
0.914,0.105
0.916,0.09
0.918,0.075
0.92,0.06
0.922,0.045
0.924,0.04
0.926,0.04
0.928,0.04
0.93,0.045
0.932,0.05
0.934,0.045
0.936,0.04
0.938,0.03
0.94,0.01
0.942,-0.01
0.944,-0.025
0.946,-0.04
0.948,-0.045
0.95,-0.045
0.952,-0.04
0.954,-0.03
0.956,-0.015
0.958,-0.005
0.96,0
0.962,0
0.964,-0.005
0.966,-0.015
0.968,-0.025
0.97,-0.035
0.972,-0.035
0.974,-0.04
0.976,-0.035
0.978,-0.025
0.98,-0.02
0.982,-0.01
0.984,-0.01
0.986,-0.01
0.988,-0.015
0.99,-0.025
0.992,-0.035
0.994,-0.045
0.996,-0.055
0.998,-0.06
1,-0.065
1.002,-0.06
1.004,-0.06
1.006,-0.055
1.008,-0.05
1.01,-0.05
1.012,-0.045
1.014,-0.05
1.016,-0.05
1.018,-0.055
1.02,-0.055
1.022,-0.06
1.024,-0.06
1.026,-0.06
1.028,-0.055
1.03,-0.05
1.032,-0.05
1.034,-0.045
1.036,-0.04
1.038,-0.035
1.04,-0.035
1.042,-0.03
1.044,-0.03
1.046,-0.03
1.048,-0.03
1.05,-0.03
1.052,-0.03
1.054,-0.03
1.056,-0.025
1.058,-0.025
1.06,-0.02
1.062,-0.02
1.064,-0.02
1.066,-0.015
1.068,-0.015
1.07,-0.015
1.072,-0.01
1.074,-0.01
1.076,-0.01
1.078,-0.01
1.08,-0.01
1.082,-0.01
1.084,-0.015
1.086,-0.015
1.088,-0.015
1.09,-0.015
1.092,-0.015
1.094,-0.015
1.096,-0.015
1.098,-0.01
1.1,-0.01
1.102,-0.005
1.104,-0.005
1.106,-0.01
1.108,-0.01
1.11,-0.015
1.112,-0.02
1.114,-0.025
1.116,-0.03
1.118,-0.035
1.12,-0.04
1.122,-0.045
1.124,-0.045
1.126,-0.05
1.128,-0.05
1.13,-0.05
1.132,-0.05
1.134,-0.045
1.136,-0.04
1.138,-0.035
1.14,-0.035
1.142,-0.03
1.144,-0.025
1.146,-0.025
1.148,-0.025
1.15,-0.025
1.152,-0.025
1.154,-0.025
1.156,-0.03
1.158,-0.03
1.16,-0.03
1.162,-0.03
1.164,-0.035
1.166,-0.035
1.168,-0.035
1.17,-0.035
1.172,-0.035
1.174,-0.035
1.176,-0.03
1.178,-0.03
1.18,-0.025
1.182,-0.02
1.184,-0.015
1.186,-0.015
1.188,-0.01
1.19,-0.005
1.192,-0.005
1.194,0
1.196,0.005
1.198,0.01
1.2,0.015
1.202,0.02
1.204,0.025
1.206,0.025
1.208,0.025
1.21,0.02
1.212,0.015
1.214,0.01
1.216,0.01
1.218,0.005
1.22,0.005
1.222,0.01
1.224,0.015
1.226,0.015
1.228,0.02
1.23,0.02
1.232,0.015
1.234,0.01
1.236,0.005
1.238,-0.005
1.24,-0.015
1.242,-0.02
1.244,-0.025
1.246,-0.03
1.248,-0.035
1.25,-0.04
1.252,-0.045
1.254,-0.045
1.256,-0.05
1.258,-0.055
1.26,-0.055
1.262,-0.05
1.264,-0.045
1.266,-0.045
1.268,-0.04
1.27,-0.04
1.272,-0.04
1.274,-0.045
1.276,-0.05
1.278,-0.055
1.28,-0.06
1.282,-0.065
1.284,-0.06
1.286,-0.06
1.288,-0.055
1.29,-0.05
1.292,-0.05
1.294,-0.05
1.296,-0.06
1.298,-0.065
1.3,-0.075
1.302,-0.08
1.304,-0.08
1.306,-0.075
1.308,-0.065
1.31,-0.055
1.312,-0.045
1.314,-0.035
1.316,-0.03
1.318,-0.03
1.32,-0.035
1.322,-0.045
1.324,-0.055
1.326,-0.06
1.328,-0.065
1.33,-0.06
1.332,-0.045
1.334,-0.03
1.336,-0.015
1.338,0.005
1.34,0.02
1.342,0.035
1.344,0.04
1.346,0.035
1.348,0.03
1.35,0.02
1.352,0.01
1.354,0
1.356,-0.005
1.358,-0.005
1.36,0.005
1.362,0.025
1.364,0.045
1.366,0.075
1.368,0.095
1.37,0.115
1.372,0.12
1.374,0.105
1.376,0.08
1.378,0.04
1.38,-0.01
1.382,-0.065
1.384,-0.12
1.386,-0.165
1.388,-0.195
1.39,-0.215
1.392,-0.215
1.394,-0.205
1.396,-0.185
1.398,-0.16
1.4,-0.13
1.402,-0.105
1.404,-0.085
1.406,-0.065
1.408,-0.05
1.41,-0.035
1.412,-0.03
1.414,-0.02
1.416,-0.02
1.418,-0.02
1.42,-0.025
1.422,-0.03
1.424,-0.04
1.426,-0.045
1.428,-0.05
1.43,-0.045
1.432,-0.04
1.434,-0.035
1.436,-0.025
1.438,-0.015
1.44,-0.015
1.442,-0.015
1.444,-0.02
1.446,-0.03
1.448,-0.04
1.45,-0.045
1.452,-0.045
1.454,-0.045
1.456,-0.035
1.458,-0.02
1.46,-0.005
1.462,0.005
1.464,0.015
1.466,0.015
1.468,0.015
1.47,0.005
1.472,-0.01
1.474,-0.02
1.476,-0.03
1.478,-0.035
1.48,-0.035
1.482,-0.035
1.484,-0.025
1.486,-0.02
1.488,-0.015
1.49,-0.01
1.492,-0.01
1.494,-0.01
1.496,-0.015
1.498,-0.02
1.5,-0.02
1.502,-0.015
1.504,-0.015
1.506,-0.005
1.508,0
1.51,0.005
1.512,0.01
1.514,0.015
1.516,0.015
1.518,0.015
1.52,0.015
1.522,0.02
1.524,0.02
1.526,0.025
1.528,0.03
1.53,0.03
1.532,0.035
1.534,0.035
1.536,0.035
1.538,0.035
1.54,0.035
1.542,0.04
1.544,0.04
1.546,0.045
1.548,0.05
1.55,0.06
1.552,0.065
1.554,0.07
1.556,0.075
1.558,0.08
1.56,0.085
1.562,0.095
1.564,0.1
1.566,0.11
1.568,0.125
1.57,0.135
1.572,0.145
1.574,0.15
1.576,0.15
1.578,0.15
1.58,0.15
1.582,0.145
1.584,0.145
1.586,0.15
1.588,0.155
1.59,0.165
1.592,0.175
1.594,0.19
1.596,0.2
1.598,0.21
1.6,0.215
1.602,0.21
1.604,0.205
1.606,0.2
1.608,0.19
1.61,0.18
1.612,0.175
1.614,0.17
1.616,0.17
1.618,0.17
1.62,0.165
1.622,0.165
1.624,0.165
1.626,0.16
1.628,0.15
1.63,0.145
1.632,0.135
1.634,0.125
1.636,0.115
1.638,0.105
1.64,0.09
1.642,0.08
1.644,0.065
1.646,0.055
1.648,0.04
1.65,0.03
1.652,0.02
1.654,0.01
1.656,0.01
1.658,0.005
1.66,0.005
1.662,0
1.664,0
1.666,0
1.668,-0.005
1.67,-0.005
1.672,-0.01
1.674,-0.015
1.676,-0.025
1.678,-0.03
1.68,-0.04
1.682,-0.045
1.684,-0.05
1.686,-0.055
1.688,-0.055
1.69,-0.055
1.692,-0.05
1.694,-0.045
1.696,-0.04
1.698,-0.03
1.7,-0.025
1.702,-0.02
1.704,-0.025
1.706,-0.025
1.708,-0.035
1.71,-0.04
1.712,-0.05
1.714,-0.055
1.716,-0.06
1.718,-0.06
1.72,-0.06
1.722,-0.055
1.724,-0.05
1.726,-0.045
1.728,-0.045
1.73,-0.045
1.732,-0.05
1.734,-0.05
1.736,-0.055
1.738,-0.06
1.74,-0.06
1.742,-0.06
1.744,-0.055
1.746,-0.045
1.748,-0.04
1.75,-0.03
1.752,-0.025
1.754,-0.025
1.756,-0.025
1.758,-0.03
1.76,-0.035
1.762,-0.04
1.764,-0.045
1.766,-0.04
1.768,-0.04
1.77,-0.035
1.772,-0.03
1.774,-0.025
1.776,-0.025
1.778,-0.025
1.78,-0.03
1.782,-0.035
1.784,-0.04
1.786,-0.045
1.788,-0.045
1.79,-0.04
1.792,-0.03
1.794,-0.02
1.796,-0.01
1.798,0
1.8,0.005
1.802,0
1.804,-0.005
1.806,-0.015
1.808,-0.025
1.81,-0.035
1.812,-0.04
1.814,-0.045
1.816,-0.05
1.818,-0.05
1.82,-0.045
1.822,-0.04
1.824,-0.04
1.826,-0.035
1.828,-0.03
1.83,-0.025
1.832,-0.025
1.834,-0.02
1.836,-0.02
1.838,-0.02
1.84,-0.02
1.842,-0.02
1.844,-0.025
1.846,-0.025
1.848,-0.025
1.85,-0.03
1.852,-0.025
1.854,-0.025
1.856,-0.025
1.858,-0.025
1.86,-0.025
1.862,-0.03
1.864,-0.035
1.866,-0.04
1.868,-0.045
1.87,-0.05
1.872,-0.055
1.874,-0.055
1.876,-0.055
1.878,-0.05
1.88,-0.045
1.882,-0.045
1.884,-0.04
1.886,-0.04
1.888,-0.04
1.89,-0.04
1.892,-0.04
1.894,-0.04
1.896,-0.035
1.898,-0.03
1.9,-0.03
1.902,-0.025
1.904,-0.025
1.906,-0.02
1.908,-0.02
1.91,-0.015
1.912,-0.01
1.914,-0.005
1.916,0
1.918,0.005
1.92,0.01
1.922,0.01
1.924,0.01
1.926,0.01
1.928,0
1.93,-0.005
1.932,-0.01
1.934,-0.01
1.936,-0.01
1.938,-0.01
1.94,-0.005
1.942,-0.005
1.944,-0.005
1.946,-0.005
1.948,-0.005
1.95,-0.01
1.952,-0.015
1.954,-0.015
1.956,-0.01
1.958,0
1.96,0.015
1.962,0.03
1.964,0.045
1.966,0.055
1.968,0.06
1.97,0.06
1.972,0.05
1.974,0.035
1.976,0.02
1.978,0.005
1.98,-0.01
1.982,-0.025
1.984,-0.035
1.986,-0.04
1.988,-0.045
1.99,-0.05
1.992,-0.055
1.994,-0.055
1.996,-0.06
1.998,-0.06
2,-0.06
2.002,-0.055
2.004,-0.045
2.006,-0.04
2.008,-0.03
2.01,-0.03
2.012,-0.03
2.014,-0.03
2.016,-0.04
2.018,-0.045
2.02,-0.055
2.022,-0.06
2.024,-0.065
2.026,-0.065
2.028,-0.065
2.03,-0.06
2.032,-0.06
2.034,-0.055
2.036,-0.055
2.038,-0.06
2.04,-0.065
2.042,-0.065
2.044,-0.07
2.046,-0.075
2.048,-0.075
2.05,-0.07
2.052,-0.07
2.054,-0.065
2.056,-0.06
2.058,-0.055
2.06,-0.05
2.062,-0.045
2.064,-0.045
2.066,-0.04
2.068,-0.035
2.07,-0.025
2.072,-0.015
2.074,0
2.076,0.015
2.078,0.03
2.08,0.045
2.082,0.055
2.084,0.06
2.086,0.06
2.088,0.055
2.09,0.05
2.092,0.045
2.094,0.04
2.096,0.045
2.098,0.055
2.1,0.07
2.102,0.085
2.104,0.105
2.106,0.115
2.108,0.115
2.11,0.1
2.112,0.07
2.114,0.025
2.116,-0.03
2.118,-0.085
2.12,-0.14
2.122,-0.18
2.124,-0.2
2.126,-0.205
2.128,-0.195
2.13,-0.17
2.132,-0.135
2.134,-0.105
2.136,-0.08
2.138,-0.06
2.14,-0.05
2.142,-0.045
2.144,-0.05
2.146,-0.055
2.148,-0.055
2.15,-0.055
2.152,-0.05
2.154,-0.045
2.156,-0.04
2.158,-0.035
2.16,-0.035
2.162,-0.035
2.164,-0.04
2.166,-0.045
2.168,-0.05
2.17,-0.05
2.172,-0.055
2.174,-0.05
2.176,-0.05
2.178,-0.045
2.18,-0.04
2.182,-0.035
2.184,-0.03
2.186,-0.025
2.188,-0.02
2.19,-0.015
2.192,-0.015
2.194,-0.01
2.196,-0.01
2.198,-0.015
2.2,-0.02
2.202,-0.025
2.204,-0.03
2.206,-0.035
2.208,-0.04
2.21,-0.035
2.212,-0.03
2.214,-0.02
2.216,-0.01
2.218,0
2.22,0.005
2.222,0.01
2.224,0.01
2.226,0.01
2.228,0.005
2.23,0
2.232,-0.005
2.234,-0.01
2.236,-0.005
2.238,-0.005
2.24,0
2.242,0.01
2.244,0.015
2.246,0.015
2.248,0.02
2.25,0.02
2.252,0.015
2.254,0.015
2.256,0.015
2.258,0.01
2.26,0.01
2.262,0.005
2.264,0.005
2.266,0.005
2.268,0.01
2.27,0.015
2.272,0.02
2.274,0.03
2.276,0.04
2.278,0.05
2.28,0.06
2.282,0.07
2.284,0.07
2.286,0.07
2.288,0.07
2.29,0.065
2.292,0.065
2.294,0.065
2.296,0.075
2.298,0.09
2.3,0.105
2.302,0.125
2.304,0.14
2.306,0.155
2.308,0.165
2.31,0.17
2.312,0.17
2.314,0.165
2.316,0.16
2.318,0.155
2.32,0.155
2.322,0.16
2.324,0.165
2.326,0.175
2.328,0.18
2.33,0.19
2.332,0.19
2.334,0.195
2.336,0.19
2.338,0.19
2.34,0.185
2.342,0.185
2.344,0.185
2.346,0.185
2.348,0.185
2.35,0.185
2.352,0.185
2.354,0.18
2.356,0.175
2.358,0.165
2.36,0.155
2.362,0.145
2.364,0.14
2.366,0.13
2.368,0.125
2.37,0.12
2.372,0.115
2.374,0.11
2.376,0.1
2.378,0.095
2.38,0.085
2.382,0.075
2.384,0.065
2.386,0.055
2.388,0.045
2.39,0.035
2.392,0.03
2.394,0.02
2.396,0.015
2.398,0.01
2.4,0.005
2.402,0.005
2.404,0.005
2.406,0
2.408,0
2.41,0
2.412,-0.005
2.414,-0.01
2.416,-0.015
2.418,-0.02
2.42,-0.025
2.422,-0.03
2.424,-0.035
2.426,-0.035
2.428,-0.04
2.43,-0.04
2.432,-0.04
2.434,-0.04
2.436,-0.04
2.438,-0.045
2.44,-0.045
2.442,-0.045
2.444,-0.045
2.446,-0.045
2.448,-0.045
2.45,-0.04
2.452,-0.04
2.454,-0.035
2.456,-0.03
2.458,-0.025
2.46,-0.025
2.462,-0.025
2.464,-0.025
2.466,-0.03
2.468,-0.035
2.47,-0.04
2.472,-0.045
2.474,-0.05
2.476,-0.05
2.478,-0.055
2.48,-0.055
2.482,-0.05
2.484,-0.05
2.486,-0.045
2.488,-0.04
2.49,-0.035
2.492,-0.025
2.494,-0.02
2.496,-0.015
2.498,-0.015
2.5,-0.01
2.502,-0.01
2.504,-0.015
2.506,-0.015
2.508,-0.02
2.51,-0.025
2.512,-0.03
2.514,-0.035
2.516,-0.035
2.518,-0.035
2.52,-0.035
2.522,-0.035
2.524,-0.035
2.526,-0.03
2.528,-0.03
2.53,-0.03
2.532,-0.03
2.534,-0.03
2.536,-0.03
2.538,-0.035
2.54,-0.035
2.542,-0.035
2.544,-0.035
2.546,-0.03
2.548,-0.03
2.55,-0.03
2.552,-0.03
2.554,-0.03
2.556,-0.035
2.558,-0.035
2.56,-0.035
2.562,-0.035
2.564,-0.035
2.566,-0.035
2.568,-0.03
2.57,-0.03
2.572,-0.025
2.574,-0.025
2.576,-0.025
2.578,-0.03
2.58,-0.03
2.582,-0.035
2.584,-0.04
2.586,-0.04
2.588,-0.04
2.59,-0.04
2.592,-0.035
2.594,-0.03
2.596,-0.025
2.598,-0.02
2.6,-0.015
2.602,-0.01
2.604,-0.01
2.606,-0.01
2.608,-0.01
2.61,-0.015
2.612,-0.02
2.614,-0.02
2.616,-0.03
2.618,-0.035
2.62,-0.04
2.622,-0.045
2.624,-0.045
2.626,-0.045
2.628,-0.04
2.63,-0.035
2.632,-0.03
2.634,-0.025
2.636,-0.02
2.638,-0.02
2.64,-0.02
2.642,-0.025
2.644,-0.03
2.646,-0.035
2.648,-0.045
2.65,-0.045
2.652,-0.05
2.654,-0.045
2.656,-0.04
2.658,-0.03
2.66,-0.02
2.662,-0.015
2.664,-0.01
2.666,-0.01
2.668,-0.01
2.67,-0.01
2.672,-0.015
2.674,-0.015
2.676,-0.015
2.678,-0.015
2.68,-0.01
2.682,-0.01
2.684,-0.005
2.686,-0.005
2.688,-0.005
2.69,-0.01
2.692,-0.01
2.694,-0.015
2.696,-0.015
2.698,-0.01
2.7,-0.01
2.702,-0.005
2.704,0
2.706,0.005
2.708,0.01
2.71,0.015
2.712,0.025
2.714,0.03
2.716,0.035
2.718,0.045
2.72,0.05
2.722,0.055
2.724,0.055
2.726,0.05
2.728,0.045
2.73,0.035
2.732,0.025
2.734,0.01
2.736,0
2.738,-0.01
2.74,-0.02
2.742,-0.03
2.744,-0.035
2.746,-0.035
2.748,-0.04
2.75,-0.04
2.752,-0.04
2.754,-0.035
2.756,-0.035
2.758,-0.03
2.76,-0.025
2.762,-0.02
2.764,-0.015
2.766,-0.015
2.768,-0.02
2.77,-0.025
2.772,-0.03
2.774,-0.04
2.776,-0.05
2.778,-0.06
2.78,-0.065
2.782,-0.065
2.784,-0.065
2.786,-0.06
2.788,-0.05
2.79,-0.045
2.792,-0.04
2.794,-0.04
2.796,-0.04
2.798,-0.045
2.8,-0.05
2.802,-0.05
2.804,-0.055
2.806,-0.05
2.808,-0.05
2.81,-0.045
2.812,-0.035
2.814,-0.035
2.816,-0.03
2.818,-0.03
2.82,-0.035
2.822,-0.04
2.824,-0.04
2.826,-0.04
2.828,-0.03
2.83,-0.015
2.832,0
2.834,0.025
2.836,0.04
2.838,0.055
2.84,0.06
2.842,0.06
2.844,0.05
2.846,0.04
2.848,0.03
2.85,0.025
2.852,0.03
2.854,0.04
2.856,0.065
2.858,0.085
2.86,0.11
2.862,0.125
2.864,0.12
2.866,0.105
2.868,0.07
2.87,0.025
2.872,-0.03
2.874,-0.085
2.876,-0.13
2.878,-0.165
2.88,-0.19
2.882,-0.195
2.884,-0.19
2.886,-0.17
2.888,-0.15
2.89,-0.125
2.892,-0.105
2.894,-0.085
2.896,-0.065
2.898,-0.05
2.9,-0.035
2.902,-0.025
2.904,-0.015
2.906,-0.01
2.908,-0.005
2.91,-0.005
2.912,-0.01
2.914,-0.015
2.916,-0.02
2.918,-0.025
2.92,-0.03
2.922,-0.03
2.924,-0.03
2.926,-0.03
2.928,-0.025
2.93,-0.02
2.932,-0.02
2.934,-0.015
2.936,-0.015
2.938,-0.02
2.94,-0.025
2.942,-0.025
2.944,-0.03
2.946,-0.03
2.948,-0.03
2.95,-0.03
2.952,-0.03
2.954,-0.03
2.956,-0.03
2.958,-0.03
2.96,-0.03
2.962,-0.035
2.964,-0.035
2.966,-0.04
2.968,-0.04
2.97,-0.04
2.972,-0.035
2.974,-0.035
2.976,-0.035
2.978,-0.035
2.98,-0.03
2.982,-0.03
2.984,-0.03
2.986,-0.03
2.988,-0.025
2.99,-0.02
2.992,-0.015
2.994,-0.005
2.996,0
2.998,0.005
3,0.005
3.002,0.005
3.004,0
3.006,-0.005
3.008,-0.005
3.01,-0.005
3.012,0
3.014,0.005
3.016,0.015
3.018,0.025
3.02,0.035
3.022,0.045
3.024,0.05
3.026,0.05
3.028,0.05
3.03,0.05
3.032,0.05
3.034,0.05
3.036,0.055
3.038,0.06
3.04,0.07
3.042,0.075
3.044,0.08
3.046,0.08
3.048,0.08
3.05,0.08
3.052,0.08
3.054,0.085
3.056,0.09
3.058,0.1
3.06,0.11
3.062,0.125
3.064,0.14
3.066,0.155
3.068,0.16
3.07,0.165
3.072,0.17
3.074,0.17
3.076,0.165
3.078,0.165
3.08,0.17
3.082,0.17
3.084,0.175
3.086,0.18
3.088,0.185
3.09,0.19
3.092,0.19
3.094,0.185
3.096,0.185
3.098,0.175
3.1,0.17
3.102,0.165
3.104,0.16
3.106,0.16
3.108,0.155
3.11,0.155
3.112,0.155
3.114,0.15
3.116,0.15
3.118,0.145
3.12,0.14
3.122,0.135
3.124,0.13
3.126,0.12
3.128,0.11
3.13,0.1
3.132,0.09
3.134,0.075
3.136,0.065
3.138,0.05
3.14,0.035
3.142,0.02
3.144,0.01
3.146,-0.005
3.148,-0.01
3.15,-0.015
3.152,-0.015
3.154,-0.01
3.156,-0.01
3.158,-0.005
3.16,0
3.162,-0.005
3.164,-0.01
3.166,-0.015
3.168,-0.025
3.17,-0.035
3.172,-0.045
3.174,-0.05
3.176,-0.05
3.178,-0.05
3.18,-0.045
3.182,-0.035
3.184,-0.03
3.186,-0.03
3.188,-0.03
3.19,-0.035
3.192,-0.045
3.194,-0.05
3.196,-0.055
3.198,-0.06
3.2,-0.06
3.202,-0.055
3.204,-0.05
3.206,-0.04
3.208,-0.035
3.21,-0.03
3.212,-0.03
3.214,-0.03
3.216,-0.035
3.218,-0.04
3.22,-0.045
3.222,-0.05
3.224,-0.055
3.226,-0.055
3.228,-0.055
3.23,-0.055
3.232,-0.05
3.234,-0.05
3.236,-0.045
3.238,-0.045
3.24,-0.04
3.242,-0.04
3.244,-0.04
3.246,-0.035
3.248,-0.035
3.25,-0.035
3.252,-0.035
3.254,-0.035
3.256,-0.035
3.258,-0.035
3.26,-0.04
3.262,-0.04
3.264,-0.035
3.266,-0.035
3.268,-0.03
3.27,-0.025
3.272,-0.015
3.274,-0.015
3.276,-0.01
3.278,-0.01
3.28,-0.015
3.282,-0.02
3.284,-0.025
3.286,-0.025
3.288,-0.03
3.29,-0.03
3.292,-0.03
3.294,-0.025
3.296,-0.02
3.298,-0.015
3.3,-0.015
3.302,-0.01
3.304,-0.01
3.306,-0.015
3.308,-0.015
3.31,-0.02
3.312,-0.025
3.314,-0.025
3.316,-0.025
3.318,-0.025
3.32,-0.02
3.322,-0.015
3.324,-0.015
3.326,-0.015
3.328,-0.02
3.33,-0.025
3.332,-0.035
3.334,-0.04
3.336,-0.045
3.338,-0.045
3.34,-0.045
3.342,-0.04
3.344,-0.035
3.346,-0.03
3.348,-0.025
3.35,-0.02
3.352,-0.02
3.354,-0.02
3.356,-0.025
3.358,-0.025
3.36,-0.03
3.362,-0.03
3.364,-0.03
3.366,-0.03
3.368,-0.025
3.37,-0.02
3.372,-0.02
3.374,-0.02
3.376,-0.02
3.378,-0.025
3.38,-0.025
3.382,-0.03
3.384,-0.035
3.386,-0.035
3.388,-0.035
3.39,-0.035
3.392,-0.035
3.394,-0.03
3.396,-0.03
3.398,-0.03
3.4,-0.03
3.402,-0.03
3.404,-0.03
3.406,-0.03
3.408,-0.03
3.41,-0.025
3.412,-0.02
3.414,-0.02
3.416,-0.015
3.418,-0.01
3.42,-0.005
3.422,-0.005
3.424,-0.005
3.426,-0.005
3.428,-0.005
3.43,-0.005
3.432,-0.005
3.434,-0.005
3.436,-0.005
3.438,-0.005
3.44,0
3.442,0.005
3.444,0.005
3.446,0.015
3.448,0.02
3.45,0.025
3.452,0.025
3.454,0.03
3.456,0.035
3.458,0.035
3.46,0.035
3.462,0.035
3.464,0.04
3.466,0.04
3.468,0.045
3.47,0.05
3.472,0.05
3.474,0.05
3.476,0.045
3.478,0.04
3.48,0.03
3.482,0.015
3.484,0
3.486,-0.01
3.488,-0.02
3.49,-0.03
3.492,-0.035
3.494,-0.035
3.496,-0.035
3.498,-0.035
3.5,-0.04
3.502,-0.045
3.504,-0.05
3.506,-0.055
3.508,-0.06
3.51,-0.065
3.512,-0.065
3.514,-0.065
3.516,-0.055
3.518,-0.05
3.52,-0.045
3.522,-0.04
3.524,-0.035
3.526,-0.035
3.528,-0.035
3.53,-0.04
3.532,-0.045
3.534,-0.045
3.536,-0.05
3.538,-0.055
3.54,-0.055
3.542,-0.055
3.544,-0.05
3.546,-0.05
3.548,-0.045
3.55,-0.04
3.552,-0.035
3.554,-0.03
3.556,-0.025
3.558,-0.02
3.56,-0.02
3.562,-0.025
3.564,-0.025
3.566,-0.03
3.568,-0.035
3.57,-0.035
3.572,-0.035
3.574,-0.025
3.576,-0.01
3.578,0.01
3.58,0.025
3.582,0.04
3.584,0.05
3.586,0.055
3.588,0.05
3.59,0.04
3.592,0.025
3.594,0.02
3.596,0.02
3.598,0.025
3.6,0.045
3.602,0.07
3.604,0.1
3.606,0.13
3.608,0.145
3.61,0.15
3.612,0.135
3.614,0.105
3.616,0.055
3.618,0
3.62,-0.06
3.622,-0.115
3.624,-0.165
3.626,-0.195
3.628,-0.21
3.63,-0.215
3.632,-0.205
3.634,-0.185
3.636,-0.16
3.638,-0.14
3.64,-0.12
3.642,-0.1
3.644,-0.085
3.646,-0.075
3.648,-0.07
3.65,-0.06
3.652,-0.055
3.654,-0.05
3.656,-0.045
3.658,-0.04
3.66,-0.04
3.662,-0.035
3.664,-0.035
3.666,-0.035
3.668,-0.03
3.67,-0.03
3.672,-0.025
3.674,-0.02
3.676,-0.015
3.678,-0.01
3.68,-0.01
3.682,-0.01
3.684,-0.01
3.686,-0.01
3.688,-0.015
3.69,-0.015
3.692,-0.02
3.694,-0.02
3.696,-0.025
3.698,-0.025
3.7,-0.025
3.702,-0.025
3.704,-0.02
3.706,-0.02
3.708,-0.015
3.71,-0.01
3.712,-0.01
3.714,-0.005
3.716,-0.005
3.718,-0.005
3.72,-0.005
3.722,-0.01
3.724,-0.015
3.726,-0.015
3.728,-0.015
3.73,-0.015
3.732,-0.01
3.734,0
3.736,0.01
3.738,0.015
3.74,0.02
3.742,0.025
3.744,0.02
3.746,0.015
3.748,0.01
3.75,0
3.752,0
3.754,-0.005
3.756,0
3.758,0.005
3.76,0.015
3.762,0.025
3.764,0.035
3.766,0.04
3.768,0.04
3.77,0.04
3.772,0.035
3.774,0.03
3.776,0.025
3.778,0.025
3.78,0.025
3.782,0.03
3.784,0.04
3.786,0.05
3.788,0.065
3.79,0.08
3.792,0.09
3.794,0.1
3.796,0.11
3.798,0.11
3.8,0.11
3.802,0.11
3.804,0.11
3.806,0.11
3.808,0.115
3.81,0.12
3.812,0.125
3.814,0.135
3.816,0.145
3.818,0.16
3.82,0.17
3.822,0.18
3.824,0.185
3.826,0.19
3.828,0.19
3.83,0.185
3.832,0.185
3.834,0.18
3.836,0.175
3.838,0.17
3.84,0.17
3.842,0.165
3.844,0.165
3.846,0.17
3.848,0.17
3.85,0.17
3.852,0.17
3.854,0.17
3.856,0.17
3.858,0.165
3.86,0.16
3.862,0.155
3.864,0.145
3.866,0.14
3.868,0.13
3.87,0.12
3.872,0.11
3.874,0.1
3.876,0.095
3.878,0.085
3.88,0.075
3.882,0.065
3.884,0.05
3.886,0.04
3.888,0.03
3.89,0.02
3.892,0.01
3.894,0
3.896,-0.005
3.898,-0.01
3.9,-0.01
3.902,-0.01
3.904,-0.01
3.906,-0.01
3.908,-0.01
3.91,-0.01
3.912,-0.015
3.914,-0.015
3.916,-0.02
3.918,-0.025
3.92,-0.03
3.922,-0.035
3.924,-0.04
3.926,-0.045
3.928,-0.045
3.93,-0.04
3.932,-0.04
3.934,-0.035
3.936,-0.035
3.938,-0.035
3.94,-0.04
3.942,-0.045
3.944,-0.05
3.946,-0.06
3.948,-0.07
3.95,-0.075
3.952,-0.08
3.954,-0.085
3.956,-0.08
3.958,-0.08
3.96,-0.075
3.962,-0.07
3.964,-0.065
3.966,-0.06
3.968,-0.055
3.97,-0.055
3.972,-0.05
3.974,-0.05
3.976,-0.05
3.978,-0.05
3.98,-0.055
3.982,-0.055
3.984,-0.055
3.986,-0.055
3.988,-0.055
3.99,-0.055
3.992,-0.05
3.994,-0.05
3.996,-0.045
3.998,-0.045
4,-0.045
4.002,-0.045
4.004,-0.045
4.006,-0.05
4.008,-0.055
4.01,-0.06
4.012,-0.065
4.014,-0.07
4.016,-0.065
4.018,-0.06
4.02,-0.05
4.022,-0.04
4.024,-0.025
4.026,-0.015
4.028,-0.01
4.03,-0.005
4.032,-0.01
4.034,-0.02
4.036,-0.03
4.038,-0.045
4.04,-0.06
4.042,-0.065
4.044,-0.07
4.046,-0.065
4.048,-0.055
4.05,-0.04
4.052,-0.02
4.054,-0.005
4.056,0.01
4.058,0.015
4.06,0.015
4.062,0.015
4.064,0.005
4.066,-0.01
4.068,-0.02
4.07,-0.035
4.072,-0.04
4.074,-0.045
4.076,-0.05
4.078,-0.045
4.08,-0.045
4.082,-0.045
4.084,-0.045
4.086,-0.05
4.088,-0.05
4.09,-0.055
4.092,-0.06
4.094,-0.06
4.096,-0.06
4.098,-0.055
4.1,-0.05
4.102,-0.04
4.104,-0.035
4.106,-0.025
4.108,-0.02
4.11,-0.015
4.112,-0.015
4.114,-0.015
4.116,-0.015
4.118,-0.015
4.12,-0.02
4.122,-0.02
4.124,-0.025
4.126,-0.025
4.128,-0.03
4.13,-0.03
4.132,-0.03
4.134,-0.025
4.136,-0.02
4.138,-0.015
4.14,-0.01
4.142,0
4.144,0.005
4.146,0.015
4.148,0.015
4.15,0.02
4.152,0.015
4.154,0.015
4.156,0.01
4.158,0.005
4.16,0.005
4.162,0.005
4.164,0.01
4.166,0.015
4.168,0.02
4.17,0.025
4.172,0.03
4.174,0.025
4.176,0.02
4.178,0.01
4.18,0
4.182,-0.015
4.184,-0.025
4.186,-0.035
4.188,-0.045
4.19,-0.05
4.192,-0.05
4.194,-0.045
4.196,-0.04
4.198,-0.04
4.2,-0.035
4.202,-0.035
4.204,-0.04
4.206,-0.045
4.208,-0.05
4.21,-0.06
4.212,-0.065
4.214,-0.07
4.216,-0.075
4.218,-0.08
4.22,-0.075
4.222,-0.075
4.224,-0.07
4.226,-0.065
4.228,-0.06
4.23,-0.055
4.232,-0.055
4.234,-0.055
4.236,-0.055
4.238,-0.055
4.24,-0.055
4.242,-0.055
4.244,-0.055
4.246,-0.055
4.248,-0.055
4.25,-0.055
4.252,-0.06
4.254,-0.06
4.256,-0.065
4.258,-0.065
4.26,-0.07
4.262,-0.07
4.264,-0.07
4.266,-0.07
4.268,-0.065
4.27,-0.065
4.272,-0.06
4.274,-0.05
4.276,-0.045
4.278,-0.035
4.28,-0.025
4.282,-0.01
4.284,0
4.286,0.01
4.288,0.015
4.29,0.015
4.292,0.01
4.294,0
4.296,-0.01
4.298,-0.015
4.3,-0.02
4.302,-0.015
4.304,0.005
4.306,0.03
4.308,0.06
4.31,0.085
4.312,0.11
4.314,0.12
4.316,0.11
4.318,0.085
4.32,0.045
4.322,-0.01
4.324,-0.065
4.326,-0.125
4.328,-0.175
4.33,-0.21
4.332,-0.225
4.334,-0.23
4.336,-0.215
4.338,-0.195
4.34,-0.165
4.342,-0.135
4.344,-0.105
4.346,-0.08
4.348,-0.06
4.35,-0.045
4.352,-0.035
4.354,-0.03
4.356,-0.025
4.358,-0.025
4.36,-0.03
4.362,-0.03
4.364,-0.035
4.366,-0.04
4.368,-0.04
4.37,-0.04
4.372,-0.04
4.374,-0.04
4.376,-0.035
4.378,-0.035
4.38,-0.04
4.382,-0.045
4.384,-0.05
4.386,-0.055
4.388,-0.06
4.39,-0.06
4.392,-0.06
4.394,-0.055
4.396,-0.045
4.398,-0.035
4.4,-0.025
4.402,-0.015
4.404,-0.01
4.406,-0.005
4.408,-0.005
4.41,-0.01
4.412,-0.015
4.414,-0.025
4.416,-0.03
4.418,-0.04
4.42,-0.045
4.422,-0.045
4.424,-0.045
4.426,-0.045
4.428,-0.04
4.43,-0.035
4.432,-0.035
4.434,-0.03
4.436,-0.025
4.438,-0.02
4.44,-0.015
4.442,-0.015
4.444,-0.01
4.446,-0.005
4.448,0
4.45,0
4.452,0.005
4.454,0.005
4.456,0.005
4.458,0.005
4.46,0.005
4.462,0.01
4.464,0.015
4.466,0.02
4.468,0.03
4.47,0.04
4.472,0.05
4.474,0.055
4.476,0.055
4.478,0.055
4.48,0.05
4.482,0.045
4.484,0.045
4.486,0.045
4.488,0.045
4.49,0.055
4.492,0.065
4.494,0.075
4.496,0.09
4.498,0.1
4.5,0.115
4.502,0.125
4.504,0.13
4.506,0.135
4.508,0.135
4.51,0.135
4.512,0.14
4.514,0.145
4.516,0.15
4.518,0.16
4.52,0.17
4.522,0.18
4.524,0.19
4.526,0.195
4.528,0.2
4.53,0.2
4.532,0.2
4.534,0.195
4.536,0.195
4.538,0.19
4.54,0.19
4.542,0.19
4.544,0.195
4.546,0.205
4.548,0.21
4.55,0.22
4.552,0.225
4.554,0.225
4.556,0.22
4.558,0.215
4.56,0.205
4.562,0.195
4.564,0.185
4.566,0.175
4.568,0.165
4.57,0.155
4.572,0.145
4.574,0.14
4.576,0.13
4.578,0.12
4.58,0.11
4.582,0.095
4.584,0.085
4.586,0.07
4.588,0.06
4.59,0.045
4.592,0.035
4.594,0.025
4.596,0.015
4.598,0.01
4.6,0.005
4.602,0
4.604,-0.005
4.606,-0.005
4.608,-0.005
4.61,-0.005
4.612,-0.005
4.614,-0.005
4.616,-0.01
4.618,-0.005
4.62,-0.005
4.622,-0.01
4.624,-0.01
4.626,-0.01
4.628,-0.015
4.63,-0.02
4.632,-0.02
4.634,-0.025
4.636,-0.025
4.638,-0.025
4.64,-0.025
4.642,-0.02
4.644,-0.015
4.646,-0.015
4.648,-0.015
4.65,-0.015
4.652,-0.02
4.654,-0.03
4.656,-0.035
4.658,-0.04
4.66,-0.04
4.662,-0.04
4.664,-0.035
4.666,-0.025
4.668,-0.02
4.67,-0.01
4.672,-0.005
4.674,-0.005
4.676,-0.005
4.678,-0.01
4.68,-0.015
4.682,-0.02
4.684,-0.025
4.686,-0.025
4.688,-0.02
4.69,-0.02
4.692,-0.015
4.694,-0.015
4.696,-0.015
4.698,-0.02
4.7,-0.025
4.702,-0.025
4.704,-0.03
4.706,-0.03
4.708,-0.025
4.71,-0.02
4.712,-0.015
4.714,-0.01
4.716,0
4.718,0
4.72,0.005
4.722,0.005
4.724,0.005
4.726,0
4.728,0
4.73,-0.005
4.732,-0.005
4.734,-0.01
4.736,-0.01
4.738,-0.01
4.74,-0.01
4.742,-0.01
4.744,-0.01
4.746,-0.01
4.748,-0.01
4.75,-0.01
4.752,-0.01
4.754,-0.01
4.756,-0.01
4.758,-0.01
4.76,-0.01
4.762,-0.01
4.764,-0.005
4.766,-0.005
4.768,-0.005
4.77,-0.005
4.772,-0.005
4.774,-0.01
4.776,-0.015
4.778,-0.025
4.78,-0.03
4.782,-0.035
4.784,-0.035
4.786,-0.03
4.788,-0.025
4.79,-0.02
4.792,-0.01
4.794,-0.005
4.796,0
4.798,0
4.8,-0.005
4.802,-0.01
4.804,-0.02
4.806,-0.03
4.808,-0.04
4.81,-0.045
4.812,-0.045
4.814,-0.04
4.816,-0.035
4.818,-0.025
4.82,-0.02
4.822,-0.015
4.824,-0.01
4.826,-0.015
4.828,-0.015
4.83,-0.02
4.832,-0.025
4.834,-0.025
4.836,-0.025
4.838,-0.02
4.84,-0.015
4.842,-0.005
4.844,0
4.846,0.005
4.848,0.01
4.85,0.01
4.852,0.01
4.854,0.01
4.856,0.005
4.858,0.01
4.86,0.01
4.862,0.015
4.864,0.025
4.866,0.03
4.868,0.04
4.87,0.045
4.872,0.045
4.874,0.05
4.876,0.05
4.878,0.045
4.88,0.045
4.882,0.045
4.884,0.045
4.886,0.045
4.888,0.05
4.89,0.05
4.892,0.055
4.894,0.055
4.896,0.055
4.898,0.055
4.9,0.05
4.902,0.045
4.904,0.035
4.906,0.025
4.908,0.015
4.91,0.005
4.912,-0.005
4.914,-0.015
4.916,-0.02
4.918,-0.025
4.92,-0.025
4.922,-0.03
4.924,-0.03
4.926,-0.03
4.928,-0.03
4.93,-0.035
4.932,-0.035
4.934,-0.04
4.936,-0.05
4.938,-0.055
4.94,-0.055
4.942,-0.06
4.944,-0.06
4.946,-0.06
4.948,-0.055
4.95,-0.05
4.952,-0.045
4.954,-0.045
4.956,-0.04
4.958,-0.04
4.96,-0.04
4.962,-0.045
4.964,-0.045
4.966,-0.045
4.968,-0.045
4.97,-0.04
4.972,-0.04
4.974,-0.035
4.976,-0.035
4.978,-0.03
4.98,-0.03
4.982,-0.035
4.984,-0.035
4.986,-0.035
4.988,-0.035
4.99,-0.035
4.992,-0.03
4.994,-0.03
4.996,-0.02
4.998,-0.015
5,-0.01
5.002,0
5.004,0.01
5.006,0.025
5.008,0.035
5.01,0.045
5.012,0.05
5.014,0.055
5.016,0.05
5.018,0.05
5.02,0.045
5.022,0.04
5.024,0.035
5.026,0.04
5.028,0.05
5.03,0.065
5.032,0.09
5.034,0.11
5.036,0.13
5.038,0.14
5.04,0.135
5.042,0.115
5.044,0.08
5.046,0.03
5.048,-0.03
5.05,-0.085
5.052,-0.14
5.054,-0.18
5.056,-0.2
5.058,-0.205
5.06,-0.195
5.062,-0.17
5.064,-0.14
5.066,-0.11
5.068,-0.085
5.07,-0.065
5.072,-0.05
5.074,-0.045
5.076,-0.045
5.078,-0.045
5.08,-0.045
5.082,-0.04
5.084,-0.03
5.086,-0.02
5.088,-0.01
5.09,-0.005
5.092,0
5.094,-0.005
5.096,-0.01
5.098,-0.02
5.1,-0.03
5.102,-0.04
5.104,-0.05
5.106,-0.055
5.108,-0.055
5.11,-0.055
5.112,-0.05
5.114,-0.045
5.116,-0.04
5.118,-0.035
5.12,-0.03
5.122,-0.025
5.124,-0.02
5.126,-0.015
5.128,-0.01
5.13,-0.005
5.132,0
5.134,0
5.136,0
5.138,-0.005
5.14,-0.015
5.142,-0.02
5.144,-0.025
5.146,-0.03
5.148,-0.025
5.15,-0.015
5.152,-0.005
5.154,0.005
5.156,0.02
5.158,0.03
5.16,0.035
5.162,0.035
5.164,0.03
5.166,0.025
5.168,0.015
5.17,0.01
5.172,0.005
5.174,0.005
5.176,0.005
5.178,0.01
5.18,0.015
5.182,0.02
5.184,0.02
5.186,0.015
5.188,0.015
5.19,0.01
5.192,0.015
5.194,0.015
5.196,0.025
5.198,0.035
5.2,0.05
5.202,0.06
5.204,0.07
5.206,0.07
5.208,0.07
5.21,0.065
5.212,0.055
5.214,0.05
5.216,0.045
5.218,0.045
5.22,0.05
5.222,0.065
5.224,0.075
5.226,0.095
5.228,0.11
5.23,0.125
5.232,0.135
5.234,0.145
5.236,0.155
5.238,0.16
5.24,0.165
5.242,0.17
5.244,0.175
5.246,0.175
5.248,0.175
5.25,0.175
5.252,0.175
5.254,0.18
5.256,0.18
5.258,0.185
5.26,0.19
5.262,0.195
5.264,0.205
5.266,0.21
5.268,0.215
5.27,0.215
5.272,0.21
5.274,0.205
5.276,0.2
5.278,0.19
5.28,0.185
5.282,0.175
5.284,0.175
5.286,0.17
5.288,0.165
5.29,0.165
5.292,0.16
5.294,0.15
5.296,0.14
5.298,0.13
5.3,0.115
5.302,0.105
5.304,0.095
5.306,0.085
5.308,0.075
5.31,0.07
5.312,0.06
5.314,0.055
5.316,0.05
5.318,0.045
5.32,0.035
5.322,0.03
5.324,0.02
5.326,0.01
5.328,0
5.33,-0.005
5.332,-0.015
5.334,-0.025
5.336,-0.03
5.338,-0.035
5.34,-0.035
5.342,-0.035
5.344,-0.035
5.346,-0.035
5.348,-0.03
5.35,-0.035
5.352,-0.035
5.354,-0.035
5.356,-0.04
5.358,-0.045
5.36,-0.045
5.362,-0.04
5.364,-0.035
5.366,-0.03
5.368,-0.025
5.37,-0.02
5.372,-0.02
5.374,-0.02
5.376,-0.02
5.378,-0.025
5.38,-0.03
5.382,-0.035
5.384,-0.04
5.386,-0.045
5.388,-0.045
5.39,-0.04
5.392,-0.04
5.394,-0.04
5.396,-0.04
5.398,-0.04
5.4,-0.045
5.402,-0.05
5.404,-0.055
5.406,-0.055
5.408,-0.055
5.41,-0.055
5.412,-0.055
5.414,-0.05
5.416,-0.045
5.418,-0.045
5.42,-0.04
5.422,-0.04
5.424,-0.04
5.426,-0.04
5.428,-0.045
5.43,-0.045
5.432,-0.045
5.434,-0.045
5.436,-0.045
5.438,-0.04
5.44,-0.04
5.442,-0.04
5.444,-0.04
5.446,-0.04
5.448,-0.035
5.45,-0.035
5.452,-0.035
5.454,-0.03
5.456,-0.03
5.458,-0.025
5.46,-0.02
5.462,-0.015
5.464,-0.015
5.466,-0.015
5.468,-0.015
5.47,-0.02
5.472,-0.025
5.474,-0.03
5.476,-0.035
5.478,-0.04
5.48,-0.04
5.482,-0.04
5.484,-0.035
5.486,-0.03
5.488,-0.025
5.49,-0.025
5.492,-0.025
5.494,-0.025
5.496,-0.03
5.498,-0.035
5.5,-0.045
5.502,-0.05
5.504,-0.05
5.506,-0.05
5.508,-0.05
5.51,-0.045
5.512,-0.04
5.514,-0.04
5.516,-0.04
5.518,-0.04
5.52,-0.05
5.522,-0.055
5.524,-0.065
5.526,-0.07
5.528,-0.07
5.53,-0.065
5.532,-0.06
5.534,-0.055
5.536,-0.045
5.538,-0.04
5.54,-0.035
5.542,-0.04
5.544,-0.04
5.546,-0.045
5.548,-0.05
5.55,-0.05
5.552,-0.05
5.554,-0.045
5.556,-0.035
5.558,-0.03
5.56,-0.025
5.562,-0.025
5.564,-0.03
5.566,-0.04
5.568,-0.05
5.57,-0.06
5.572,-0.07
5.574,-0.08
5.576,-0.08
5.578,-0.075
5.58,-0.065
5.582,-0.05
5.584,-0.04
5.586,-0.025
5.588,-0.015
5.59,-0.01
5.592,-0.01
5.594,-0.015
5.596,-0.025
5.598,-0.035
5.6,-0.045
5.602,-0.05
5.604,-0.05
5.606,-0.05
5.608,-0.045
5.61,-0.04
5.612,-0.03
5.614,-0.025
5.616,-0.02
5.618,-0.02
5.62,-0.02
5.622,-0.02
5.624,-0.02
5.626,-0.025
5.628,-0.02
5.63,-0.02
5.632,-0.01
5.634,0
5.636,0.01
5.638,0.02
5.64,0.03
5.642,0.04
5.644,0.045
5.646,0.045
5.648,0.045
5.65,0.04
5.652,0.03
5.654,0.02
5.656,0.01
5.658,0.005
5.66,-0.005
5.662,-0.005
5.664,-0.005
5.666,-0.005
5.668,-0.005
5.67,0
5.672,-0.005
5.674,-0.005
5.676,-0.015
5.678,-0.03
5.68,-0.04
5.682,-0.055
5.684,-0.07
5.686,-0.08
5.688,-0.08
5.69,-0.08
5.692,-0.07
5.694,-0.055
5.696,-0.045
5.698,-0.035
5.7,-0.025
5.702,-0.025
5.704,-0.03
5.706,-0.035
5.708,-0.045
5.71,-0.055
5.712,-0.065
5.714,-0.07
5.716,-0.07
5.718,-0.07
5.72,-0.06
5.722,-0.055
5.724,-0.05
5.726,-0.05
5.728,-0.05
5.73,-0.055
5.732,-0.06
5.734,-0.07
5.736,-0.075
5.738,-0.08
5.74,-0.08
5.742,-0.08
5.744,-0.075
5.746,-0.065
5.748,-0.06
5.75,-0.05
5.752,-0.05
5.754,-0.045
5.756,-0.05
5.758,-0.05
5.76,-0.055
5.762,-0.055
5.764,-0.05
5.766,-0.04
5.768,-0.025
5.77,-0.005
5.772,0.01
5.774,0.03
5.776,0.045
5.778,0.05
5.78,0.05
5.782,0.045
5.784,0.04
5.786,0.03
5.788,0.025
5.79,0.025
5.792,0.035
5.794,0.05
5.796,0.07
5.798,0.09
5.8,0.105
5.802,0.115
5.804,0.105
5.806,0.09
5.808,0.055
5.81,0.01
5.812,-0.04
5.814,-0.09
5.816,-0.135
5.818,-0.17
5.82,-0.195
5.822,-0.205
5.824,-0.2
5.826,-0.19
5.828,-0.17
5.83,-0.145
5.832,-0.12
5.834,-0.1
5.836,-0.08
5.838,-0.065
5.84,-0.05
5.842,-0.04
5.844,-0.03
5.846,-0.03
5.848,-0.03
5.85,-0.03
5.852,-0.035
5.854,-0.04
5.856,-0.045
5.858,-0.045
5.86,-0.045
5.862,-0.045
5.864,-0.04
5.866,-0.035
5.868,-0.03
5.87,-0.025
5.872,-0.02
5.874,-0.02
5.876,-0.02
5.878,-0.025
5.88,-0.025
5.882,-0.025
5.884,-0.025
5.886,-0.025
5.888,-0.025
5.89,-0.025
5.892,-0.03
5.894,-0.03
5.896,-0.03
5.898,-0.03
5.9,-0.03
5.902,-0.03
5.904,-0.025
5.906,-0.025
5.908,-0.02
5.91,-0.02
5.912,-0.02
5.914,-0.025
5.916,-0.03
5.918,-0.03
5.92,-0.03
5.922,-0.03
5.924,-0.02
5.926,-0.015
5.928,-0.01
5.93,-0.005
5.932,-0.005
5.934,-0.01
5.936,-0.015
5.938,-0.025
5.94,-0.04
5.942,-0.045
5.944,-0.05
5.946,-0.05
5.948,-0.045
5.95,-0.03
5.952,-0.015
5.954,-0.005
5.956,0.01
5.958,0.015
5.96,0.02
5.962,0.015
5.964,0.015
5.966,0.01
5.968,0.01
5.97,0.01
5.972,0.015
5.974,0.025
5.976,0.035
5.978,0.04
5.98,0.045
5.982,0.05
5.984,0.05
5.986,0.05
5.988,0.05
5.99,0.05
5.992,0.06
5.994,0.07
5.996,0.08
5.998,0.095
6,0.11
6.002,0.12
6.004,0.13
6.006,0.135
6.008,0.135
6.01,0.135
6.012,0.135
6.014,0.135
6.016,0.14
6.018,0.15
6.02,0.155
6.022,0.165
6.024,0.175
6.026,0.175
6.028,0.175
6.03,0.175
6.032,0.17
6.034,0.165
6.036,0.165
6.038,0.16
6.04,0.16
6.042,0.16
6.044,0.16
6.046,0.16
6.048,0.155
6.05,0.15
6.052,0.145
6.054,0.135
6.056,0.125
6.058,0.11
6.06,0.1
6.062,0.09
6.064,0.08
6.066,0.07
6.068,0.065
6.07,0.055
6.072,0.045
6.074,0.035
6.076,0.025
6.078,0.015
6.08,0.005
6.082,0
6.084,-0.01
6.086,-0.015
6.088,-0.015
6.09,-0.015
6.092,-0.02
6.094,-0.02
6.096,-0.025
6.098,-0.03
6.1,-0.035
6.102,-0.04
6.104,-0.05
6.106,-0.055
6.108,-0.06
6.11,-0.06
6.112,-0.06
6.114,-0.06
6.116,-0.06
6.118,-0.06
6.12,-0.06
6.122,-0.06
6.124,-0.065
6.126,-0.075
6.128,-0.08
6.13,-0.09
6.132,-0.095
6.134,-0.1
6.136,-0.1
6.138,-0.095
6.14,-0.09
6.142,-0.085
6.144,-0.075
6.146,-0.065
6.148,-0.06
6.15,-0.055
6.152,-0.055
6.154,-0.06
6.156,-0.065
6.158,-0.07
6.16,-0.075
6.162,-0.08
6.164,-0.08
6.166,-0.075
6.168,-0.07
6.17,-0.06
6.172,-0.05
6.174,-0.045
6.176,-0.04
6.178,-0.04
6.18,-0.05
6.182,-0.06
6.184,-0.07
6.186,-0.08
6.188,-0.085
6.19,-0.085
6.192,-0.085
6.194,-0.08
6.196,-0.07
6.198,-0.06
6.2,-0.055
6.202,-0.05
6.204,-0.055
6.206,-0.06
6.208,-0.065
6.21,-0.075
6.212,-0.08
6.214,-0.08
6.216,-0.08
6.218,-0.075
6.22,-0.065
6.222,-0.05
6.224,-0.04
6.226,-0.03
6.228,-0.025
6.23,-0.025
6.232,-0.03
6.234,-0.035
6.236,-0.045
6.238,-0.05
6.24,-0.06
6.242,-0.065
6.244,-0.065
6.246,-0.065
6.248,-0.06
6.25,-0.055
6.252,-0.05
6.254,-0.045
6.256,-0.045
6.258,-0.045
6.26,-0.045
6.262,-0.05
6.264,-0.055
6.266,-0.065
6.268,-0.07
6.27,-0.075
6.272,-0.08
6.274,-0.08
6.276,-0.085
6.278,-0.08
6.28,-0.08
6.282,-0.075
6.284,-0.07
6.286,-0.06
6.288,-0.055
6.29,-0.05
6.292,-0.045
6.294,-0.045
6.296,-0.045
6.298,-0.045
6.3,-0.05
6.302,-0.055
6.304,-0.06
6.306,-0.06
6.308,-0.06
6.31,-0.06
6.312,-0.055
6.314,-0.055
6.316,-0.05
6.318,-0.05
6.32,-0.05
6.322,-0.05
6.324,-0.05
6.326,-0.05
6.328,-0.05
6.33,-0.05
6.332,-0.05
6.334,-0.045
6.336,-0.045
6.338,-0.05
6.34,-0.055
6.342,-0.06
6.344,-0.065
6.346,-0.07
6.348,-0.075
6.35,-0.075
6.352,-0.07
6.354,-0.06
6.356,-0.05
6.358,-0.045
6.36,-0.035
6.362,-0.035
6.364,-0.035
6.366,-0.035
6.368,-0.04
6.37,-0.045
6.372,-0.045
6.374,-0.045
6.376,-0.045
6.378,-0.04
6.38,-0.035
6.382,-0.035
6.384,-0.035
6.386,-0.04
6.388,-0.045
6.39,-0.045
6.392,-0.04
6.394,-0.035
6.396,-0.025
6.398,-0.015
6.4,0
6.402,0.015
6.404,0.025
6.406,0.03
6.408,0.03
6.41,0.03
6.412,0.02
6.414,0.01
6.416,0
6.418,-0.015
6.42,-0.025
6.422,-0.03
6.424,-0.035
6.426,-0.04
6.428,-0.04
6.43,-0.04
6.432,-0.04
6.434,-0.04
6.436,-0.035
6.438,-0.035
6.44,-0.03
6.442,-0.03
6.444,-0.03
6.446,-0.035
6.448,-0.04
6.45,-0.045
6.452,-0.055
6.454,-0.06
6.456,-0.07
6.458,-0.075
6.46,-0.075
6.462,-0.075
6.464,-0.07
6.466,-0.06
6.468,-0.055
6.47,-0.045
6.472,-0.035
6.474,-0.03
6.476,-0.03
6.478,-0.03
6.48,-0.035
6.482,-0.045
6.484,-0.055
6.486,-0.07
6.488,-0.075
6.49,-0.085
6.492,-0.085
6.494,-0.08
6.496,-0.07
6.498,-0.06
6.5,-0.05
6.502,-0.04
6.504,-0.035
6.506,-0.035
6.508,-0.04
6.51,-0.05
6.512,-0.06
6.514,-0.07
6.516,-0.075
6.518,-0.075
6.52,-0.07
6.522,-0.055
6.524,-0.035
6.526,-0.015
6.528,0.005
6.53,0.02
6.532,0.03
6.534,0.035
6.536,0.035
6.538,0.025
6.54,0.015
6.542,0.01
6.544,0.01
6.546,0.015
6.548,0.03
6.55,0.05
6.552,0.08
6.554,0.11
6.556,0.135
6.558,0.145
6.56,0.145
6.562,0.13
6.564,0.095
6.566,0.05
6.568,-0.005
6.57,-0.06
6.572,-0.115
6.574,-0.155
6.576,-0.18
6.578,-0.19
6.58,-0.185
6.582,-0.17
6.584,-0.15
6.586,-0.125
6.588,-0.1
6.59,-0.08
6.592,-0.065
6.594,-0.055
6.596,-0.045
6.598,-0.04
6.6,-0.03
6.602,-0.025
6.604,-0.02
6.606,-0.02
6.608,-0.02
6.61,-0.02
6.612,-0.03
6.614,-0.04
6.616,-0.05
6.618,-0.06
6.62,-0.065
6.622,-0.065
6.624,-0.06
6.626,-0.05
6.628,-0.04
6.63,-0.03
6.632,-0.02
6.634,-0.01
6.636,-0.01
6.638,-0.01
6.64,-0.01
6.642,-0.01
6.644,-0.015
6.646,-0.015
6.648,-0.015
6.65,-0.01
6.652,-0.005
6.654,0
6.656,0
6.658,0
6.66,0
6.662,0
6.664,-0.005
6.666,-0.01
6.668,-0.015
6.67,-0.015
6.672,-0.02
6.674,-0.02
6.676,-0.015
6.678,-0.015
6.68,-0.01
6.682,-0.005
6.684,0
6.686,0.005
6.688,0.01
6.69,0.015
6.692,0.02
6.694,0.025
6.696,0.025
6.698,0.025
6.7,0.025
6.702,0.025
6.704,0.025
6.706,0.025
6.708,0.03
6.71,0.035
6.712,0.04
6.714,0.045
6.716,0.05
6.718,0.055
6.72,0.06
6.722,0.065
6.724,0.07
6.726,0.07
6.728,0.075
6.73,0.075
6.732,0.08
6.734,0.08
6.736,0.085
6.738,0.09
6.74,0.095
6.742,0.095
6.744,0.1
6.746,0.105
6.748,0.11
6.75,0.115
6.752,0.12
6.754,0.125
6.756,0.13
6.758,0.14
6.76,0.145
6.762,0.15
6.764,0.16
6.766,0.165
6.768,0.17
6.77,0.175
6.772,0.185
6.774,0.19
6.776,0.2
6.778,0.21
6.78,0.22
6.782,0.225
6.784,0.23
6.786,0.235
6.788,0.23
6.79,0.225
6.792,0.22
6.794,0.21
6.796,0.2
6.798,0.19
6.8,0.18
6.802,0.175
6.804,0.175
6.806,0.175
6.808,0.18
6.81,0.185
6.812,0.185
6.814,0.185
6.816,0.18
6.818,0.165
6.82,0.15
6.822,0.135
6.824,0.115
6.826,0.095
6.828,0.08
6.83,0.07
6.832,0.065
6.834,0.06
6.836,0.06
6.838,0.065
6.84,0.065
6.842,0.065
6.844,0.06
6.846,0.055
6.848,0.05
6.85,0.04
6.852,0.035
6.854,0.03
6.856,0.025
6.858,0.02
6.86,0.015
6.862,0.01
6.864,0.01
6.866,0.005
6.868,0
6.87,0
6.872,-0.005
6.874,-0.005
6.876,0
6.878,0.005
6.88,0.01
6.882,0.02
6.884,0.025
6.886,0.025
6.888,0.025
6.89,0.02
6.892,0.01
6.894,0
6.896,-0.01
6.898,-0.02
6.9,-0.025
6.902,-0.025
6.904,-0.025
6.906,-0.02
6.908,-0.015
6.91,-0.005
6.912,0
6.914,0.005
6.916,0.01
6.918,0.01
6.92,0.01
6.922,0.005
6.924,0.005
6.926,0
6.928,0
6.93,-0.005
6.932,-0.005
6.934,-0.005
6.936,-0.005
6.938,0
6.94,0.005
6.942,0.01
6.944,0.015
6.946,0.02
6.948,0.025
6.95,0.03
6.952,0.03
6.954,0.03
6.956,0.025
6.958,0.025
6.96,0.02
6.962,0.02
6.964,0.02
6.966,0.025
6.968,0.025
6.97,0.03
6.972,0.035
6.974,0.035
6.976,0.035
6.978,0.035
6.98,0.03
6.982,0.025
6.984,0.025
6.986,0.02
6.988,0.02
6.99,0.02
6.992,0.02
6.994,0.02
6.996,0.02
6.998,0.02
7,0.02
7.002,0.02
7.004,0.02
7.006,0.02
7.008,0.025
7.01,0.03
7.012,0.035
7.014,0.04
7.016,0.045
7.018,0.055
7.02,0.06
7.022,0.06
7.024,0.06
7.026,0.06
7.028,0.055
7.03,0.05
7.032,0.045
7.034,0.045
7.036,0.04
7.038,0.04
7.04,0.04
7.042,0.045
7.044,0.045
7.046,0.05
7.048,0.05
7.05,0.05
7.052,0.05
7.054,0.05
7.056,0.045
7.058,0.04
7.06,0.035
7.062,0.03
7.064,0.03
7.066,0.025
7.068,0.025
7.07,0.03
7.072,0.03
7.074,0.035
7.076,0.035
7.078,0.035
7.08,0.03
7.082,0.03
7.084,0.025
7.086,0.02
7.088,0.015
7.09,0.01
7.092,0.015
7.094,0.015
7.096,0.02
7.098,0.03
7.1,0.035
7.102,0.04
7.104,0.045
7.106,0.05
7.108,0.055
7.11,0.055
7.112,0.055
7.114,0.06
7.116,0.065
7.118,0.07
7.12,0.075
7.122,0.08
7.124,0.085
7.126,0.085
7.128,0.085
7.13,0.085
7.132,0.085
7.134,0.085
7.136,0.085
7.138,0.09
7.14,0.095
7.142,0.1
7.144,0.11
7.146,0.115
7.148,0.12
7.15,0.12
7.152,0.115
7.154,0.105
7.156,0.095
7.158,0.08
7.16,0.065
7.162,0.05
7.164,0.04
7.166,0.035
7.168,0.04
7.17,0.04
7.172,0.05
7.174,0.06
7.176,0.065
7.178,0.07
7.18,0.07
7.182,0.065
7.184,0.06
7.186,0.055
7.188,0.05
7.19,0.045
7.192,0.04
7.194,0.04
7.196,0.045
7.198,0.05
7.2,0.05
7.202,0.055
7.204,0.055
7.206,0.055
7.208,0.05
7.21,0.045
7.212,0.04
7.214,0.04
7.216,0.04
7.218,0.045
7.22,0.05
7.222,0.055
7.224,0.06
7.226,0.06
7.228,0.065
7.23,0.06
7.232,0.055
7.234,0.05
7.236,0.045
7.238,0.045
7.24,0.04
7.242,0.04
7.244,0.04
7.246,0.04
7.248,0.04
7.25,0.04
7.252,0.04
7.254,0.04
7.256,0.045
7.258,0.055
7.26,0.065
7.262,0.085
7.264,0.105
7.266,0.13
7.268,0.145
7.27,0.16
7.272,0.16
7.274,0.155
7.276,0.145
7.278,0.13
7.28,0.115
7.282,0.11
7.284,0.115
7.286,0.13
7.288,0.155
7.29,0.185
7.292,0.21
7.294,0.23
7.296,0.23
7.298,0.215
7.3,0.185
7.302,0.135
7.304,0.08
7.306,0.015
7.308,-0.04
7.31,-0.09
7.312,-0.12
7.314,-0.135
7.316,-0.135
7.318,-0.125
7.32,-0.1
7.322,-0.07
7.324,-0.035
7.326,-0.005
7.328,0.02
7.33,0.04
7.332,0.06
7.334,0.07
7.336,0.075
7.338,0.075
7.34,0.07
7.342,0.07
7.344,0.065
7.346,0.06
7.348,0.055
7.35,0.055
7.352,0.055
7.354,0.06
7.356,0.065
7.358,0.065
7.36,0.07
7.362,0.07
7.364,0.07
7.366,0.07
7.368,0.07
7.37,0.075
7.372,0.08
7.374,0.085
7.376,0.095
7.378,0.105
7.38,0.11
7.382,0.115
7.384,0.115
7.386,0.115
7.388,0.11
7.39,0.105
7.392,0.1
7.394,0.1
7.396,0.1
7.398,0.1
7.4,0.105
7.402,0.105
7.404,0.11
7.406,0.11
7.408,0.11
7.41,0.11
7.412,0.105
7.414,0.105
7.416,0.1
7.418,0.095
7.42,0.095
7.422,0.09
7.424,0.085
7.426,0.08
7.428,0.07
7.43,0.06
7.432,0.04
7.434,0.025
7.436,0.005
7.438,-0.01
7.44,-0.025
7.442,-0.035
7.444,-0.04
7.446,-0.04
7.448,-0.04
7.45,-0.035
7.452,-0.035
7.454,-0.03
7.456,-0.03
7.458,-0.03
7.46,-0.03
7.462,-0.03
7.464,-0.035
7.466,-0.035
7.468,-0.035
7.47,-0.035
7.472,-0.035
7.474,-0.04
7.476,-0.04
7.478,-0.04
7.48,-0.04
7.482,-0.035
7.484,-0.03
7.486,-0.025
7.488,-0.015
7.49,-0.005
7.492,0.005
7.494,0.015
7.496,0.025
7.498,0.03
7.5,0.035
7.502,0.04
7.504,0.04
7.506,0.04
7.508,0.045
7.51,0.05
7.512,0.055
7.514,0.065
7.516,0.07
7.518,0.08
7.52,0.09
7.522,0.095
7.524,0.095
7.526,0.095
7.528,0.09
7.53,0.09
7.532,0.085
7.534,0.08
7.536,0.08
7.538,0.075
7.54,0.075
7.542,0.075
7.544,0.07
7.546,0.065
7.548,0.055
7.55,0.045
7.552,0.03
7.554,0.02
7.556,0.005
7.558,-0.005
7.56,-0.015
7.562,-0.025
7.564,-0.03
7.566,-0.035
7.568,-0.04
7.57,-0.05
7.572,-0.055
7.574,-0.065
7.576,-0.075
7.578,-0.09
7.58,-0.1
7.582,-0.105
7.584,-0.11
7.586,-0.115
7.588,-0.115
7.59,-0.115
7.592,-0.115
7.594,-0.11
7.596,-0.11
7.598,-0.11
7.6,-0.11
7.602,-0.115
7.604,-0.115
7.606,-0.12
7.608,-0.125
7.61,-0.125
7.612,-0.13
7.614,-0.135
7.616,-0.14
7.618,-0.14
7.62,-0.14
7.622,-0.14
7.624,-0.135
7.626,-0.13
7.628,-0.13
7.63,-0.125
7.632,-0.125
7.634,-0.13
7.636,-0.14
7.638,-0.145
7.64,-0.155
7.642,-0.165
7.644,-0.17
7.646,-0.17
7.648,-0.17
7.65,-0.165
7.652,-0.16
7.654,-0.155
7.656,-0.15
7.658,-0.15
7.66,-0.15
7.662,-0.15
7.664,-0.155
7.666,-0.155
7.668,-0.15
7.67,-0.145
7.672,-0.135
7.674,-0.13
7.676,-0.12
7.678,-0.115
7.68,-0.11
7.682,-0.11
7.684,-0.115
7.686,-0.125
7.688,-0.13
7.69,-0.135
7.692,-0.135
7.694,-0.135
7.696,-0.13
7.698,-0.125
7.7,-0.115
7.702,-0.11
7.704,-0.105
7.706,-0.1
7.708,-0.105
7.71,-0.105
7.712,-0.11
7.714,-0.115
7.716,-0.12
7.718,-0.125
7.72,-0.125
7.722,-0.125
7.724,-0.125
7.726,-0.12
7.728,-0.115
7.73,-0.115
7.732,-0.11
7.734,-0.105
7.736,-0.1
7.738,-0.1
7.74,-0.095
7.742,-0.095
7.744,-0.095
7.746,-0.1
7.748,-0.105
7.75,-0.115
7.752,-0.12
7.754,-0.125
7.756,-0.13
7.758,-0.13
7.76,-0.125
7.762,-0.12
7.764,-0.115
7.766,-0.11
7.768,-0.105
7.77,-0.105
7.772,-0.105
7.774,-0.105
7.776,-0.11
7.778,-0.115
7.78,-0.12
7.782,-0.12
7.784,-0.12
7.786,-0.115
7.788,-0.115
7.79,-0.115
7.792,-0.115
7.794,-0.115
7.796,-0.12
7.798,-0.12
7.8,-0.125
7.802,-0.125
7.804,-0.12
7.806,-0.115
7.808,-0.11
7.81,-0.1
7.812,-0.095
7.814,-0.09
7.816,-0.085
7.818,-0.085
7.82,-0.09
7.822,-0.095
7.824,-0.1
7.826,-0.105
7.828,-0.105
7.83,-0.1
7.832,-0.095
7.834,-0.09
7.836,-0.08
7.838,-0.075
7.84,-0.07
7.842,-0.07
7.844,-0.075
7.846,-0.08
7.848,-0.085
7.85,-0.09
7.852,-0.09
7.854,-0.09
7.856,-0.085
7.858,-0.08
7.86,-0.075
7.862,-0.065
7.864,-0.06
7.866,-0.055
7.868,-0.055
7.87,-0.05
7.872,-0.05
7.874,-0.05
7.876,-0.045
7.878,-0.04
7.88,-0.035
7.882,-0.03
7.884,-0.03
7.886,-0.025
7.888,-0.025
7.89,-0.025
7.892,-0.03
7.894,-0.035
7.896,-0.045
7.898,-0.05
7.9,-0.06
7.902,-0.065
7.904,-0.075
7.906,-0.08
7.908,-0.09
7.91,-0.1
7.912,-0.105
7.914,-0.11
7.916,-0.115
7.918,-0.115
7.92,-0.105
7.922,-0.1
7.924,-0.09
7.926,-0.08
7.928,-0.07
7.93,-0.07
7.932,-0.07
7.934,-0.075
7.936,-0.085
7.938,-0.095
7.94,-0.11
7.942,-0.115
7.944,-0.12
7.946,-0.12
7.948,-0.115
7.95,-0.105
7.952,-0.095
7.954,-0.08
7.956,-0.075
7.958,-0.07
7.96,-0.065
7.962,-0.07
7.964,-0.075
7.966,-0.08
7.968,-0.09
7.97,-0.095
7.972,-0.1
7.974,-0.1
7.976,-0.1
7.978,-0.095
7.98,-0.085
7.982,-0.075
7.984,-0.065
7.986,-0.055
7.988,-0.05
7.99,-0.045
7.992,-0.04
7.994,-0.045
7.996,-0.045
7.998,-0.05
8,-0.05
8.002,-0.05
8.004,-0.04
8.006,-0.03
8.008,-0.02
8.01,-0.005
8.012,0.005
8.014,0.01
8.016,0.01
8.018,0.01
8.02,0
8.022,0
8.024,0
8.026,0.005
8.028,0.02
8.03,0.04
8.032,0.065
8.034,0.09
8.036,0.11
8.038,0.115
8.04,0.105
8.042,0.08
8.044,0.04
8.046,-0.005
8.048,-0.06
8.05,-0.11
8.052,-0.155
8.054,-0.185
8.056,-0.205
8.058,-0.21
8.06,-0.2
8.062,-0.18
8.064,-0.155
8.066,-0.13
8.068,-0.105
8.07,-0.085
8.072,-0.065
8.074,-0.055
8.076,-0.045
8.078,-0.045
8.08,-0.045
8.082,-0.045
8.084,-0.05
8.086,-0.055
8.088,-0.06
8.09,-0.06
8.092,-0.06
8.094,-0.06
8.096,-0.055
8.098,-0.055
8.1,-0.05
8.102,-0.05
8.104,-0.05
8.106,-0.055
8.108,-0.06
8.11,-0.065
8.112,-0.065
8.114,-0.065
8.116,-0.06
8.118,-0.055
8.12,-0.045
8.122,-0.035
8.124,-0.02
8.126,-0.015
8.128,-0.01
8.13,-0.005
8.132,-0.01
8.134,-0.015
8.136,-0.025
8.138,-0.03
8.14,-0.03
8.142,-0.03
8.144,-0.025
8.146,-0.015
8.148,-0.01
8.15,0
8.152,0
8.154,0.005
8.156,0.005
8.158,0
8.16,-0.005
8.162,-0.005
8.164,-0.005
8.166,-0.005
8.168,0
8.17,0.005
8.172,0.01
8.174,0.01
8.176,0.01
8.178,0.01
8.18,0.01
8.182,0.01
8.184,0.01
8.186,0.01
8.188,0.015
8.19,0.02
8.192,0.025
8.194,0.025
8.196,0.03
8.198,0.035
8.2,0.035
8.202,0.04
8.204,0.04
8.206,0.04
8.208,0.045
8.21,0.045
8.212,0.05
8.214,0.05
8.216,0.055
8.218,0.06
8.22,0.065
8.222,0.07
8.224,0.08
8.226,0.085
8.228,0.095
8.23,0.105
8.232,0.115
8.234,0.125
8.236,0.13
8.238,0.14
8.24,0.145
8.242,0.15
8.244,0.155
8.246,0.16
8.248,0.165
8.25,0.17
8.252,0.175
8.254,0.18
8.256,0.185
8.258,0.185
8.26,0.185
8.262,0.185
8.264,0.185
8.266,0.185
8.268,0.185
8.27,0.19
8.272,0.195
8.274,0.2
8.276,0.205
8.278,0.21
8.28,0.21
8.282,0.205
8.284,0.2
8.286,0.195
8.288,0.19
8.29,0.185
8.292,0.18
8.294,0.18
8.296,0.175
8.298,0.165
8.3,0.155
8.302,0.145
8.304,0.13
8.306,0.11
8.308,0.095
8.31,0.08
8.312,0.065
8.314,0.06
8.316,0.06
8.318,0.06
8.32,0.06
8.322,0.06
8.324,0.055
8.326,0.045
8.328,0.03
8.33,0.015
8.332,0
8.334,-0.015
8.336,-0.02
8.338,-0.025
8.34,-0.025
8.342,-0.02
8.344,-0.015
8.346,-0.01
8.348,-0.005
8.35,-0.005
8.352,-0.005
8.354,-0.01
8.356,-0.015
8.358,-0.02
8.36,-0.02
8.362,-0.025
8.364,-0.025
8.366,-0.025
8.368,-0.02
8.37,-0.02
8.372,-0.025
8.374,-0.025
8.376,-0.03
8.378,-0.035
8.38,-0.035
8.382,-0.04
8.384,-0.04
8.386,-0.04
8.388,-0.04
8.39,-0.04
8.392,-0.04
8.394,-0.04
8.396,-0.04
8.398,-0.04
8.4,-0.04
8.402,-0.045
8.404,-0.045
8.406,-0.045
8.408,-0.05
8.41,-0.045
8.412,-0.045
8.414,-0.045
8.416,-0.04
8.418,-0.035
8.42,-0.03
8.422,-0.03
8.424,-0.025
8.426,-0.02
8.428,-0.02
8.43,-0.015
8.432,-0.015
8.434,-0.015
8.436,-0.015
8.438,-0.02
8.44,-0.02
8.442,-0.025
8.444,-0.025
8.446,-0.025
8.448,-0.03
8.45,-0.03
8.452,-0.03
8.454,-0.025
8.456,-0.025
8.458,-0.02
8.46,-0.015
8.462,-0.01
8.464,-0.005
8.466,0
8.468,0.005
8.47,0.005
8.472,0.005
8.474,0.005
8.476,0
8.478,-0.005
8.48,-0.005
8.482,-0.01
8.484,-0.015
8.486,-0.015
8.488,-0.015
8.49,-0.015
8.492,-0.01
8.494,-0.005
8.496,0
8.498,0
8.5,0.005
8.502,0
8.504,0
8.506,-0.005
8.508,-0.01
8.51,-0.02
8.512,-0.025
8.514,-0.03
8.516,-0.035
8.518,-0.035
8.52,-0.035
8.522,-0.035
8.524,-0.035
8.526,-0.035
8.528,-0.035
8.53,-0.035
8.532,-0.035
8.534,-0.03
8.536,-0.025
8.538,-0.015
8.54,-0.005
8.542,0
8.544,0.01
8.546,0.01
8.548,0.005
8.55,0
8.552,-0.01
8.554,-0.02
8.556,-0.03
8.558,-0.035
8.56,-0.035
8.562,-0.03
8.564,-0.02
8.566,-0.005
8.568,0.005
8.57,0.015
8.572,0.02
8.574,0.02
8.576,0.01
8.578,0
8.58,-0.015
8.582,-0.03
8.584,-0.04
8.586,-0.045
8.588,-0.045
8.59,-0.04
8.592,-0.035
8.594,-0.03
8.596,-0.025
8.598,-0.025
8.6,-0.025
8.602,-0.025
8.604,-0.025
8.606,-0.02
8.608,-0.015
8.61,-0.005
8.612,0.005
8.614,0.015
8.616,0.025
8.618,0.03
8.62,0.025
8.622,0.02
8.624,0.01
8.626,0
8.628,-0.01
8.63,-0.01
8.632,-0.005
8.634,0
8.636,0.015
8.638,0.03
8.64,0.045
8.642,0.055
8.644,0.06
8.646,0.06
8.648,0.055
8.65,0.045
8.652,0.045
8.654,0.04
8.656,0.045
8.658,0.055
8.66,0.07
8.662,0.085
8.664,0.095
8.666,0.105
8.668,0.105
8.67,0.1
8.672,0.09
8.674,0.08
8.676,0.06
8.678,0.045
8.68,0.03
8.682,0.02
8.684,0.01
8.686,0
8.688,-0.005
8.69,-0.01
8.692,-0.01
8.694,-0.01
8.696,-0.005
8.698,0
8.7,0.005
8.702,0.01
8.704,0.015
8.706,0.02
8.708,0.025
8.71,0.025
8.712,0.02
8.714,0.015
8.716,0.01
8.718,0
8.72,-0.01
8.722,-0.015
8.724,-0.02
8.726,-0.025
8.728,-0.025
8.73,-0.02
8.732,-0.015
8.734,-0.01
8.736,-0.005
8.738,0
8.74,0
8.742,0.005
8.744,0
8.746,0
8.748,-0.005
8.75,-0.005
8.752,-0.005
8.754,0
8.756,0.005
8.758,0.01
8.76,0.015
8.762,0.015
8.764,0.015
8.766,0.01
8.768,0.01
8.77,0.005
8.772,0.005
8.774,0.01
8.776,0.015
8.778,0.03
8.78,0.045
8.782,0.065
8.784,0.08
8.786,0.09
8.788,0.095
8.79,0.095
8.792,0.095
8.794,0.085
8.796,0.08
8.798,0.08
8.8,0.085
8.802,0.095
8.804,0.115
8.806,0.135
8.808,0.16
8.81,0.18
8.812,0.19
8.814,0.185
8.816,0.165
8.818,0.13
8.82,0.08
8.822,0.025
8.824,-0.035
8.826,-0.09
8.828,-0.135
8.83,-0.165
8.832,-0.18
8.834,-0.175
8.836,-0.16
8.838,-0.13
8.84,-0.095
8.842,-0.055
8.844,-0.02
8.846,0.005
8.848,0.025
8.85,0.035
8.852,0.035
8.854,0.025
8.856,0.015
8.858,0.005
8.86,-0.005
8.862,-0.01
8.864,-0.015
8.866,-0.01
8.868,-0.005
8.87,0.005
8.872,0.015
8.874,0.02
8.876,0.025
8.878,0.025
8.88,0.03
8.882,0.03
8.884,0.03
8.886,0.03
8.888,0.035
8.89,0.035
8.892,0.04
8.894,0.04
8.896,0.04
8.898,0.035
8.9,0.03
8.902,0.025
8.904,0.025
8.906,0.02
8.908,0.02
8.91,0.025
8.912,0.03
8.914,0.035
8.916,0.045
8.918,0.05
8.92,0.05
8.922,0.05
8.924,0.045
8.926,0.04
8.928,0.03
8.93,0.025
8.932,0.015
8.934,0.015
8.936,0.01
8.938,0.015
8.94,0.015
8.942,0.015
8.944,0.02
8.946,0.02
8.948,0.025
8.95,0.03
8.952,0.035
8.954,0.04
8.956,0.045
8.958,0.055
8.96,0.06
8.962,0.07
8.964,0.075
8.966,0.075
8.968,0.075
8.97,0.07
8.972,0.065
8.974,0.065
8.976,0.06
8.978,0.06
8.98,0.06
8.982,0.06
8.984,0.065
8.986,0.07
8.988,0.075
8.99,0.075
8.992,0.08
8.994,0.085
8.996,0.09
8.998,0.1
9,0.11
9.002,0.125
9.004,0.135
9.006,0.145
9.008,0.155
9.01,0.165
9.012,0.165
9.014,0.17
9.016,0.17
9.018,0.175
9.02,0.175
9.022,0.18
9.024,0.19
9.026,0.195
9.028,0.205
9.03,0.21
9.032,0.215
9.034,0.215
9.036,0.215
9.038,0.215
9.04,0.21
9.042,0.205
9.044,0.2
9.046,0.2
9.048,0.2
9.05,0.205
9.052,0.205
9.054,0.205
9.056,0.205
9.058,0.2
9.06,0.195
9.062,0.185
9.064,0.17
9.066,0.16
9.068,0.15
9.07,0.145
9.072,0.14
9.074,0.135
9.076,0.13
9.078,0.125
9.08,0.115
9.082,0.1
9.084,0.085
9.086,0.07
9.088,0.05
9.09,0.035
9.092,0.025
9.094,0.02
9.096,0.02
9.098,0.02
9.1,0.02
9.102,0.015
9.104,0.01
9.106,0
9.108,-0.01
9.11,-0.025
9.112,-0.04
9.114,-0.05
9.116,-0.06
9.118,-0.06
9.12,-0.06
9.122,-0.05
9.124,-0.045
9.126,-0.04
9.128,-0.035
9.13,-0.035
9.132,-0.035
9.134,-0.04
9.136,-0.04
9.138,-0.045
9.14,-0.045
9.142,-0.045
9.144,-0.04
9.146,-0.04
9.148,-0.04
9.15,-0.04
9.152,-0.04
9.154,-0.045
9.156,-0.05
9.158,-0.05
9.16,-0.055
9.162,-0.055
9.164,-0.05
9.166,-0.05
9.168,-0.05
9.17,-0.05
9.172,-0.055
9.174,-0.055
9.176,-0.06
9.178,-0.065
9.18,-0.065
9.182,-0.065
9.184,-0.065
9.186,-0.06
9.188,-0.055
9.19,-0.045
9.192,-0.04
9.194,-0.035
9.196,-0.03
9.198,-0.03
9.2,-0.035
9.202,-0.035
9.204,-0.04
9.206,-0.04
9.208,-0.04
9.21,-0.04
9.212,-0.04
9.214,-0.035
9.216,-0.035
9.218,-0.03
9.22,-0.03
9.222,-0.03
9.224,-0.03
9.226,-0.03
9.228,-0.03
9.23,-0.03
9.232,-0.03
9.234,-0.025
9.236,-0.025
9.238,-0.02
9.24,-0.015
9.242,-0.01
9.244,-0.01
9.246,-0.01
9.248,-0.01
9.25,-0.01
9.252,-0.015
9.254,-0.025
9.256,-0.03
9.258,-0.04
9.26,-0.045
9.262,-0.055
9.264,-0.06
9.266,-0.06
9.268,-0.06
9.27,-0.055
9.272,-0.055
9.274,-0.05
9.276,-0.045
9.278,-0.04
9.28,-0.045
9.282,-0.045
9.284,-0.05
9.286,-0.06
9.288,-0.065
9.29,-0.065
9.292,-0.065
9.294,-0.06
9.296,-0.055
9.298,-0.045
9.3,-0.04
9.302,-0.035
9.304,-0.03
9.306,-0.03
9.308,-0.035
9.31,-0.04
9.312,-0.04
9.314,-0.04
9.316,-0.04
9.318,-0.03
9.32,-0.025
9.322,-0.015
9.324,-0.015
9.326,-0.015
9.328,-0.015
9.33,-0.025
9.332,-0.03
9.334,-0.04
9.336,-0.045
9.338,-0.05
9.34,-0.045
9.342,-0.04
9.344,-0.035
9.346,-0.03
9.348,-0.03
9.35,-0.03
9.352,-0.035
9.354,-0.04
9.356,-0.05
9.358,-0.055
9.36,-0.055
9.362,-0.055
9.364,-0.045
9.366,-0.035
9.368,-0.025
9.37,-0.02
9.372,-0.015
9.374,-0.015
9.376,-0.015
9.378,-0.025
9.38,-0.035
9.382,-0.04
9.384,-0.045
9.386,-0.05
9.388,-0.045
9.39,-0.045
9.392,-0.04
9.394,-0.035
9.396,-0.03
9.398,-0.03
9.4,-0.03
9.402,-0.03
9.404,-0.03
9.406,-0.035
9.408,-0.035
9.41,-0.035
9.412,-0.035
9.414,-0.035
9.416,-0.035
9.418,-0.035
9.42,-0.035
9.422,-0.035
9.424,-0.04
9.426,-0.04
9.428,-0.04
9.43,-0.04
9.432,-0.04
9.434,-0.035
9.436,-0.035
9.438,-0.03
9.44,-0.03
9.442,-0.03
9.444,-0.025
9.446,-0.025
9.448,-0.02
9.45,-0.02
9.452,-0.015
9.454,-0.005
9.456,0
9.458,0.005
9.46,0.01
9.462,0.01
9.464,0.015
9.466,0.015
9.468,0.015
9.47,0.015
9.472,0.01
9.474,0.01
9.476,0.01
9.478,0.005
9.48,0.005
9.482,0
9.484,-0.005
9.486,-0.01
9.488,-0.015
9.49,-0.02
9.492,-0.025
9.494,-0.03
9.496,-0.04
9.498,-0.045
9.5,-0.05
9.502,-0.055
9.504,-0.065
9.506,-0.065
9.508,-0.07
9.51,-0.07
9.512,-0.065
9.514,-0.06
9.516,-0.055
9.518,-0.05
9.52,-0.045
9.522,-0.04
9.524,-0.04
9.526,-0.04
9.528,-0.045
9.53,-0.055
9.532,-0.065
9.534,-0.07
9.536,-0.075
9.538,-0.075
9.54,-0.07
9.542,-0.065
9.544,-0.06
9.546,-0.05
9.548,-0.045
9.55,-0.045
9.552,-0.045
9.554,-0.05
9.556,-0.06
9.558,-0.07
9.56,-0.075
9.562,-0.075
9.564,-0.075
9.566,-0.07
9.568,-0.06
9.57,-0.05
9.572,-0.045
9.574,-0.035
9.576,-0.035
9.578,-0.035
9.58,-0.035
9.582,-0.035
9.584,-0.03
9.586,-0.025
9.588,-0.01
9.59,0.005
9.592,0.025
9.594,0.04
9.596,0.05
9.598,0.06
9.6,0.06
9.602,0.055
9.604,0.045
9.606,0.035
9.608,0.025
9.61,0.02
9.612,0.025
9.614,0.04
9.616,0.06
9.618,0.08
9.62,0.1
9.622,0.115
9.624,0.12
9.626,0.115
9.628,0.095
9.63,0.06
9.632,0.015
9.634,-0.04
9.636,-0.09
9.638,-0.135
9.64,-0.175
9.642,-0.2
9.644,-0.21
9.646,-0.205
9.648,-0.185
9.65,-0.16
9.652,-0.13
9.654,-0.095
9.656,-0.065
9.658,-0.04
9.66,-0.025
9.662,-0.015
9.664,-0.015
9.666,-0.02
9.668,-0.03
9.67,-0.045
9.672,-0.055
9.674,-0.065
9.676,-0.07
9.678,-0.07
9.68,-0.065
9.682,-0.055
9.684,-0.04
9.686,-0.03
9.688,-0.02
9.69,-0.015
9.692,-0.015
9.694,-0.02
9.696,-0.025
9.698,-0.035
9.7,-0.045
9.702,-0.05
9.704,-0.055
9.706,-0.05
9.708,-0.045
9.71,-0.04
9.712,-0.035
9.714,-0.025
9.716,-0.025
9.718,-0.02
9.72,-0.02
9.722,-0.02
9.724,-0.02
9.726,-0.025
9.728,-0.025
9.73,-0.025
9.732,-0.025
9.734,-0.025
9.736,-0.025
9.738,-0.025
9.74,-0.025
9.742,-0.025
9.744,-0.02
9.746,-0.02
9.748,-0.02
9.75,-0.015
9.752,-0.015
9.754,-0.015
9.756,-0.015
9.758,-0.02
9.76,-0.025
9.762,-0.025
9.764,-0.025
9.766,-0.025
9.768,-0.025
9.77,-0.02
9.772,-0.015
9.774,-0.01
9.776,-0.005
9.778,-0.005
9.78,-0.005
9.782,-0.01
9.784,-0.01
9.786,-0.01
9.788,-0.005
9.79,0
9.792,0.005
9.794,0.01
9.796,0.02
9.798,0.025
9.8,0.035
9.802,0.04
9.804,0.045
9.806,0.05
9.808,0.055
9.81,0.065
9.812,0.07
9.814,0.075
9.816,0.08
9.818,0.085
9.82,0.09
9.822,0.095
9.824,0.1
9.826,0.105
9.828,0.115
9.83,0.125
9.832,0.14
9.834,0.15
9.836,0.165
9.838,0.175
9.84,0.18
9.842,0.185
9.844,0.18
9.846,0.175
9.848,0.17
9.85,0.165
9.852,0.155
9.854,0.15
9.856,0.15
9.858,0.15
9.86,0.15
9.862,0.15
9.864,0.155
9.866,0.155
9.868,0.155
9.87,0.155
9.872,0.15
9.874,0.15
9.876,0.145
9.878,0.14
9.88,0.13
9.882,0.12
9.884,0.11
9.886,0.095
9.888,0.085
9.89,0.07
9.892,0.06
9.894,0.05
9.896,0.045
9.898,0.04
9.9,0.035
9.902,0.03
9.904,0.02
9.906,0.015
9.908,0.005
9.91,-0.005
9.912,-0.015
9.914,-0.025
9.916,-0.03
9.918,-0.035
9.92,-0.035
9.922,-0.035
9.924,-0.035
9.926,-0.035
9.928,-0.035
9.93,-0.035
9.932,-0.04
9.934,-0.04
9.936,-0.045
9.938,-0.045
9.94,-0.05
9.942,-0.05
9.944,-0.05
9.946,-0.055
9.948,-0.055
9.95,-0.06
9.952,-0.065
9.954,-0.07
9.956,-0.07
9.958,-0.07
9.96,-0.07
9.962,-0.07
9.964,-0.065
9.966,-0.065
9.968,-0.065
9.97,-0.065
9.972,-0.07
9.974,-0.075
9.976,-0.08
9.978,-0.08
9.98,-0.08
9.982,-0.075
9.984,-0.07
9.986,-0.06
9.988,-0.055
9.99,-0.05
9.992,-0.05
9.994,-0.05
9.996,-0.06
9.998,-0.065
