0,0.005
0.002,-0.035
0.004,-0.06
0.006,-0.075
0.008,-0.075
0.01,-0.06
0.012,-0.04
0.014,-0.02
0.016,-0.005
0.018,0.005
0.02,0
0.022,-0.01
0.024,-0.025
0.026,-0.04
0.028,-0.045
0.03,-0.045
0.032,-0.035
0.034,-0.015
0.036,0.005
0.038,0.02
0.04,0.03
0.042,0.03
0.044,0.025
0.046,0.01
0.048,-0.01
0.05,-0.025
0.052,-0.03
0.054,-0.035
0.056,-0.03
0.058,-0.025
0.06,-0.015
0.062,-0.01
0.064,-0.01
0.066,-0.01
0.068,-0.015
0.07,-0.02
0.072,-0.03
0.074,-0.03
0.076,-0.03
0.078,-0.025
0.08,-0.02
0.082,-0.015
0.084,-0.01
0.086,-0.01
0.088,-0.015
0.09,-0.025
0.092,-0.03
0.094,-0.04
0.096,-0.045
0.098,-0.045
0.1,-0.045
0.102,-0.04
0.104,-0.03
0.106,-0.025
0.108,-0.02
0.11,-0.01
0.112,-0.005
0.114,-0.005
0.116,0
0.118,0
0.12,0
0.122,0
0.124,-0.005
0.126,-0.005
0.128,-0.01
0.13,-0.015
0.132,-0.02
0.134,-0.02
0.136,-0.02
0.138,-0.015
0.14,-0.01
0.142,-0.01
0.144,-0.01
0.146,-0.01
0.148,-0.02
0.15,-0.03
0.152,-0.045
0.154,-0.055
0.156,-0.06
0.158,-0.06
0.16,-0.055
0.162,-0.045
0.164,-0.03
0.166,-0.015
0.168,-0.005
0.17,0
0.172,0
0.174,-0.005
0.176,-0.02
0.178,-0.035
0.18,-0.05
0.182,-0.06
0.184,-0.07
0.186,-0.065
0.188,-0.06
0.19,-0.05
0.192,-0.04
0.194,-0.03
0.196,-0.025
0.198,-0.02
0.2,-0.02
0.202,-0.025
0.204,-0.025
0.206,-0.03
0.208,-0.03
0.21,-0.025
0.212,-0.025
0.214,-0.02
0.216,-0.02
0.218,-0.015
0.22,-0.02
0.222,-0.02
0.224,-0.025
0.226,-0.03
0.228,-0.03
0.23,-0.03
0.232,-0.03
0.234,-0.03
0.236,-0.025
0.238,-0.025
0.24,-0.025
0.242,-0.025
0.244,-0.025
0.246,-0.03
0.248,-0.035
0.25,-0.04
0.252,-0.04
0.254,-0.045
0.256,-0.045
0.258,-0.045
0.26,-0.04
0.262,-0.04
0.264,-0.035
0.266,-0.025
0.268,-0.02
0.27,-0.01
0.272,0
0.274,0.01
0.276,0.02
0.278,0.025
0.28,0.025
0.282,0.025
0.284,0.02
0.286,0.01
0.288,0.005
0.29,0
0.292,-0.005
0.294,-0.005
0.296,0
0.298,0
0.3,0.005
0.302,0.005
0.304,0
0.306,-0.005
0.308,-0.01
0.31,-0.02
0.312,-0.025
0.314,-0.035
0.316,-0.04
0.318,-0.04
0.32,-0.045
0.322,-0.045
0.324,-0.05
0.326,-0.055
0.328,-0.06
0.33,-0.065
0.332,-0.065
0.334,-0.06
0.336,-0.05
0.338,-0.045
0.34,-0.035
0.342,-0.03
0.344,-0.03
0.346,-0.04
0.348,-0.055
0.35,-0.07
0.352,-0.08
0.354,-0.075
0.356,-0.05
0.358,-0.01
0.36,0.06
0.362,0.145
0.364,0.24
0.366,0.345
0.368,0.44
0.37,0.53
0.372,0.6
0.374,0.65
0.376,0.68
0.378,0.68
0.38,0.665
0.382,0.625
0.384,0.565
0.386,0.49
0.388,0.4
0.39,0.305
0.392,0.205
0.394,0.115
0.396,0.03
0.398,-0.03
0.4,-0.075
0.402,-0.095
0.404,-0.1
0.406,-0.095
0.408,-0.08
0.41,-0.065
0.412,-0.05
0.414,-0.045
0.416,-0.04
0.418,-0.045
0.42,-0.05
0.422,-0.055
0.424,-0.06
0.426,-0.06
0.428,-0.055
0.43,-0.05
0.432,-0.045
0.434,-0.04
0.436,-0.035
0.438,-0.035
0.44,-0.035
0.442,-0.04
0.444,-0.045
0.446,-0.05
0.448,-0.055
0.45,-0.055
0.452,-0.06
0.454,-0.06
0.456,-0.06
0.458,-0.06
0.46,-0.055
0.462,-0.055
0.464,-0.055
0.466,-0.05
0.468,-0.05
0.47,-0.055
0.472,-0.055
0.474,-0.055
0.476,-0.055
0.478,-0.055
0.48,-0.045
0.482,-0.04
0.484,-0.025
0.486,-0.015
0.488,-0.005
0.49,0.005
0.492,0.005
0.494,0.005
0.496,0
0.498,-0.01
0.5,-0.02
0.502,-0.025
0.504,-0.03
0.506,-0.035
0.508,-0.035
0.51,-0.03
0.512,-0.025
0.514,-0.02
0.516,-0.015
0.518,-0.01
0.52,-0.005
0.522,0.005
0.524,0.01
0.526,0.02
0.528,0.025
0.53,0.03
0.532,0.03
0.534,0.035
0.536,0.03
0.538,0.025
0.54,0.02
0.542,0.015
0.544,0.01
0.546,0.005
0.548,0.01
0.55,0.01
0.552,0.02
0.554,0.03
0.556,0.04
0.558,0.055
0.56,0.07
0.562,0.08
0.564,0.095
0.566,0.105
0.568,0.115
0.57,0.12
0.572,0.13
0.574,0.135
0.576,0.145
0.578,0.155
0.58,0.17
0.582,0.18
0.584,0.19
0.586,0.2
0.588,0.205
0.59,0.21
0.592,0.21
0.594,0.21
0.596,0.205
0.598,0.205
0.6,0.2
0.602,0.2
0.604,0.2
0.606,0.2
0.608,0.195
0.61,0.195
0.612,0.195
0.614,0.19
0.616,0.18
0.618,0.175
0.62,0.165
0.622,0.155
0.624,0.14
0.626,0.13
0.628,0.115
0.63,0.1
0.632,0.085
0.634,0.07
0.636,0.055
0.638,0.045
0.64,0.035
0.642,0.03
0.644,0.02
0.646,0.015
0.648,0.01
0.65,0.005
0.652,0
0.654,-0.01
0.656,-0.015
0.658,-0.02
0.66,-0.025
0.662,-0.025
0.664,-0.03
0.666,-0.035
0.668,-0.04
0.67,-0.05
0.672,-0.06
0.674,-0.065
0.676,-0.075
0.678,-0.08
0.68,-0.085
0.682,-0.085
0.684,-0.08
0.686,-0.075
0.688,-0.07
0.69,-0.065
0.692,-0.06
0.694,-0.06
0.696,-0.06
0.698,-0.06
0.7,-0.065
0.702,-0.065
0.704,-0.07
0.706,-0.07
0.708,-0.075
0.71,-0.075
0.712,-0.075
0.714,-0.075
0.716,-0.075
0.718,-0.07
0.72,-0.07
0.722,-0.07
0.724,-0.065
0.726,-0.07
0.728,-0.07
0.73,-0.075
0.732,-0.08
0.734,-0.08
0.736,-0.085
0.738,-0.085
0.74,-0.08
0.742,-0.075
0.744,-0.07
0.746,-0.065
0.748,-0.065
0.75,-0.065
0.752,-0.065
0.754,-0.07
0.756,-0.075
0.758,-0.075
0.76,-0.075
0.762,-0.07
0.764,-0.06
0.766,-0.055
0.768,-0.045
0.77,-0.04
0.772,-0.04
0.774,-0.045
0.776,-0.05
0.778,-0.06
0.78,-0.065
0.782,-0.07
0.784,-0.07
0.786,-0.07
0.788,-0.06
0.79,-0.05
0.792,-0.045
0.794,-0.035
0.796,-0.035
0.798,-0.035
0.8,-0.04
0.802,-0.045
0.804,-0.05
0.806,-0.055
0.808,-0.055
0.81,-0.055
0.812,-0.055
0.814,-0.055
0.816,-0.055
0.818,-0.055
0.82,-0.055
0.822,-0.055
0.824,-0.06
0.826,-0.06
0.828,-0.065
0.83,-0.06
0.832,-0.06
0.834,-0.055
0.836,-0.05
0.838,-0.05
0.84,-0.05
0.842,-0.05
0.844,-0.055
0.846,-0.06
0.848,-0.06
0.85,-0.065
0.852,-0.06
0.854,-0.055
0.856,-0.05
0.858,-0.04
0.86,-0.035
0.862,-0.035
0.864,-0.035
0.866,-0.04
0.868,-0.045
0.87,-0.055
0.872,-0.06
0.874,-0.06
0.876,-0.06
0.878,-0.055
0.88,-0.055
0.882,-0.055
0.884,-0.06
0.886,-0.065
0.888,-0.075
0.89,-0.085
0.892,-0.095
0.894,-0.1
0.896,-0.095
0.898,-0.085
0.9,-0.07
0.902,-0.055
0.904,-0.04
0.906,-0.035
0.908,-0.03
0.91,-0.04
0.912,-0.05
0.914,-0.06
0.916,-0.065
0.918,-0.07
0.92,-0.065
0.922,-0.055
0.924,-0.045
0.926,-0.035
0.928,-0.03
0.93,-0.03
0.932,-0.04
0.934,-0.055
0.936,-0.075
0.938,-0.09
0.94,-0.095
0.942,-0.1
0.944,-0.09
0.946,-0.075
0.948,-0.06
0.95,-0.04
0.952,-0.03
0.954,-0.025
0.956,-0.025
0.958,-0.03
0.96,-0.04
0.962,-0.04
0.964,-0.04
0.966,-0.03
0.968,-0.02
0.97,-0.01
0.972,0
0.974,0.005
0.976,0.005
0.978,-0.005
0.98,-0.015
0.982,-0.03
0.984,-0.045
0.986,-0.05
0.988,-0.055
0.99,-0.05
0.992,-0.05
0.994,-0.045
0.996,-0.045
0.998,-0.05
1,-0.06
1.002,-0.075
1.004,-0.085
1.006,-0.095
1.008,-0.105
1.01,-0.1
1.012,-0.095
1.014,-0.08
1.016,-0.065
1.018,-0.05
1.02,-0.04
1.022,-0.04
1.024,-0.045
1.026,-0.055
1.028,-0.07
1.03,-0.085
1.032,-0.1
1.034,-0.11
1.036,-0.11
1.038,-0.105
1.04,-0.095
1.042,-0.065
1.044,-0.03
1.046,0.02
1.048,0.085
1.05,0.16
1.052,0.245
1.054,0.33
1.056,0.415
1.058,0.49
1.06,0.55
1.062,0.595
1.064,0.61
1.066,0.6
1.068,0.565
1.07,0.505
1.072,0.425
1.074,0.335
1.076,0.235
1.078,0.135
1.08,0.04
1.082,-0.035
1.084,-0.095
1.086,-0.13
1.088,-0.15
1.09,-0.15
1.092,-0.135
1.094,-0.115
1.096,-0.095
1.098,-0.08
1.1,-0.065
1.102,-0.06
1.104,-0.065
1.106,-0.07
1.108,-0.08
1.11,-0.085
1.112,-0.085
1.114,-0.085
1.116,-0.08
1.118,-0.07
1.12,-0.065
1.122,-0.06
1.124,-0.055
1.126,-0.06
1.128,-0.07
1.13,-0.075
1.132,-0.085
1.134,-0.09
1.136,-0.095
1.138,-0.095
1.14,-0.09
1.142,-0.085
1.144,-0.075
1.146,-0.07
1.148,-0.06
1.15,-0.055
1.152,-0.055
1.154,-0.05
1.156,-0.05
1.158,-0.055
1.16,-0.055
1.162,-0.06
1.164,-0.06
1.166,-0.065
1.168,-0.065
1.17,-0.065
1.172,-0.065
1.174,-0.06
1.176,-0.055
1.178,-0.05
1.18,-0.045
1.182,-0.04
1.184,-0.045
1.186,-0.05
1.188,-0.06
1.19,-0.07
1.192,-0.075
1.194,-0.075
1.196,-0.075
1.198,-0.065
1.2,-0.055
1.202,-0.04
1.204,-0.03
1.206,-0.02
1.208,-0.015
1.21,-0.015
1.212,-0.02
1.214,-0.025
1.216,-0.025
1.218,-0.03
1.22,-0.025
1.222,-0.02
1.224,-0.01
1.226,0.005
1.228,0.015
1.23,0.025
1.232,0.03
1.234,0.03
1.236,0.035
1.238,0.035
1.24,0.035
1.242,0.04
1.244,0.045
1.246,0.055
1.248,0.07
1.25,0.085
1.252,0.105
1.254,0.125
1.256,0.14
1.258,0.155
1.26,0.17
1.262,0.18
1.264,0.185
1.266,0.19
1.268,0.2
1.27,0.205
1.272,0.21
1.274,0.215
1.276,0.22
1.278,0.225
1.28,0.225
1.282,0.225
1.284,0.22
1.286,0.21
1.288,0.205
1.29,0.195
1.292,0.185
1.294,0.18
1.296,0.175
1.298,0.175
1.3,0.18
1.302,0.18
1.304,0.18
1.306,0.18
1.308,0.17
1.31,0.155
1.312,0.14
1.314,0.12
1.316,0.1
1.318,0.08
1.32,0.07
1.322,0.06
1.324,0.05
1.326,0.045
1.328,0.04
1.33,0.035
1.332,0.025
1.334,0.015
1.336,0
1.338,-0.01
1.34,-0.025
1.342,-0.035
1.344,-0.04
1.346,-0.045
1.348,-0.05
1.35,-0.05
1.352,-0.05
1.354,-0.055
1.356,-0.055
1.358,-0.055
1.36,-0.055
1.362,-0.055
1.364,-0.055
1.366,-0.055
1.368,-0.05
1.37,-0.05
1.372,-0.05
1.374,-0.05
1.376,-0.055
1.378,-0.065
1.38,-0.075
1.382,-0.08
1.384,-0.085
1.386,-0.09
1.388,-0.09
1.39,-0.085
1.392,-0.08
1.394,-0.075
1.396,-0.07
1.398,-0.065
1.4,-0.055
1.402,-0.055
1.404,-0.05
1.406,-0.05
1.408,-0.05
1.41,-0.05
1.412,-0.055
1.414,-0.06
1.416,-0.07
1.418,-0.075
1.42,-0.08
1.422,-0.085
1.424,-0.085
1.426,-0.085
1.428,-0.08
1.43,-0.075
1.432,-0.07
1.434,-0.06
1.436,-0.055
1.438,-0.045
1.44,-0.04
1.442,-0.03
1.444,-0.025
1.446,-0.025
1.448,-0.02
1.45,-0.025
1.452,-0.03
1.454,-0.04
1.456,-0.055
1.458,-0.07
1.46,-0.08
1.462,-0.085
1.464,-0.085
1.466,-0.08
1.468,-0.065
1.47,-0.05
1.472,-0.04
1.474,-0.025
1.476,-0.02
1.478,-0.015
1.48,-0.02
1.482,-0.025
1.484,-0.03
1.486,-0.035
1.488,-0.035
1.49,-0.035
1.492,-0.03
1.494,-0.025
1.496,-0.02
1.498,-0.02
1.5,-0.02
1.502,-0.025
1.504,-0.035
1.506,-0.04
1.508,-0.045
1.51,-0.04
1.512,-0.035
1.514,-0.03
1.516,-0.02
1.518,-0.01
1.52,-0.01
1.522,-0.01
1.524,-0.015
1.526,-0.025
1.528,-0.03
1.53,-0.04
1.532,-0.04
1.534,-0.04
1.536,-0.035
1.538,-0.03
1.54,-0.025
1.542,-0.02
1.544,-0.02
1.546,-0.02
1.548,-0.025
1.55,-0.035
1.552,-0.04
1.554,-0.045
1.556,-0.045
1.558,-0.04
1.56,-0.04
1.562,-0.035
1.564,-0.03
1.566,-0.03
1.568,-0.025
1.57,-0.03
1.572,-0.03
1.574,-0.03
1.576,-0.03
1.578,-0.035
1.58,-0.035
1.582,-0.035
1.584,-0.035
1.586,-0.035
1.588,-0.035
1.59,-0.035
1.592,-0.035
1.594,-0.03
1.596,-0.025
1.598,-0.02
1.6,-0.015
1.602,-0.01
1.604,-0.01
1.606,-0.015
1.608,-0.025
1.61,-0.035
1.612,-0.045
1.614,-0.05
1.616,-0.055
1.618,-0.055
1.62,-0.05
1.622,-0.04
1.624,-0.03
1.626,-0.025
1.628,-0.025
1.63,-0.03
1.632,-0.035
1.634,-0.045
1.636,-0.05
1.638,-0.055
1.64,-0.055
1.642,-0.05
1.644,-0.035
1.646,-0.025
1.648,-0.01
1.65,0
1.652,0.01
1.654,0.01
1.656,0.01
1.658,0.01
1.66,0.01
1.662,0.01
1.664,0.015
1.666,0.025
1.668,0.035
1.67,0.04
1.672,0.045
1.674,0.04
1.676,0.035
1.678,0.015
1.68,-0.005
1.682,-0.025
1.684,-0.05
1.686,-0.065
1.688,-0.075
1.69,-0.08
1.692,-0.075
1.694,-0.07
1.696,-0.06
1.698,-0.055
1.7,-0.055
1.702,-0.055
1.704,-0.06
1.706,-0.07
1.708,-0.075
1.71,-0.075
1.712,-0.075
1.714,-0.07
1.716,-0.065
1.718,-0.055
1.72,-0.055
1.722,-0.055
1.724,-0.065
1.726,-0.075
1.728,-0.08
1.73,-0.08
1.732,-0.07
1.734,-0.04
1.736,0.01
1.738,0.08
1.74,0.17
1.742,0.265
1.744,0.365
1.746,0.46
1.748,0.545
1.75,0.605
1.752,0.65
1.754,0.665
1.756,0.655
1.758,0.625
1.76,0.57
1.762,0.495
1.764,0.41
1.766,0.315
1.768,0.215
1.77,0.12
1.772,0.035
1.774,-0.03
1.776,-0.08
1.778,-0.11
1.78,-0.12
1.782,-0.115
1.784,-0.105
1.786,-0.09
1.788,-0.075
1.79,-0.07
1.792,-0.065
1.794,-0.07
1.796,-0.07
1.798,-0.075
1.8,-0.07
1.802,-0.065
1.804,-0.055
1.806,-0.045
1.808,-0.035
1.81,-0.03
1.812,-0.03
1.814,-0.04
1.816,-0.05
1.818,-0.065
1.82,-0.075
1.822,-0.075
1.824,-0.075
1.826,-0.065
1.828,-0.055
1.83,-0.045
1.832,-0.04
1.834,-0.04
1.836,-0.05
1.838,-0.06
1.84,-0.075
1.842,-0.09
1.844,-0.095
1.846,-0.095
1.848,-0.085
1.85,-0.07
1.852,-0.055
1.854,-0.035
1.856,-0.025
1.858,-0.02
1.86,-0.02
1.862,-0.025
1.864,-0.035
1.866,-0.045
1.868,-0.05
1.87,-0.05
1.872,-0.05
1.874,-0.045
1.876,-0.04
1.878,-0.035
1.88,-0.03
1.882,-0.025
1.884,-0.025
1.886,-0.02
1.888,-0.02
1.89,-0.02
1.892,-0.02
1.894,-0.015
1.896,-0.015
1.898,-0.015
1.9,-0.015
1.902,-0.015
1.904,-0.01
1.906,-0.01
1.908,-0.005
1.91,0
1.912,0.005
1.914,0.01
1.916,0.01
1.918,0.005
1.92,0
1.922,-0.005
1.924,-0.01
1.926,-0.01
1.928,-0.005
1.93,0.005
1.932,0.02
1.934,0.04
1.936,0.055
1.938,0.075
1.94,0.085
1.942,0.09
1.944,0.09
1.946,0.09
1.948,0.09
1.95,0.095
1.952,0.1
1.954,0.11
1.956,0.125
1.958,0.14
1.96,0.155
1.962,0.17
1.964,0.18
1.966,0.18
1.968,0.18
1.97,0.18
1.972,0.175
1.974,0.175
1.976,0.175
1.978,0.18
1.98,0.185
1.982,0.19
1.984,0.19
1.986,0.19
1.988,0.19
1.99,0.185
1.992,0.175
1.994,0.16
1.996,0.145
1.998,0.13
2,0.11
2.002,0.095
2.004,0.075
2.006,0.065
2.008,0.05
2.01,0.045
2.012,0.035
2.014,0.03
2.016,0.03
2.018,0.025
2.02,0.015
2.022,0.01
2.024,-0.005
2.026,-0.015
2.028,-0.03
2.03,-0.04
2.032,-0.05
2.034,-0.055
2.036,-0.055
2.038,-0.05
2.04,-0.045
2.042,-0.035
2.044,-0.025
2.046,-0.02
2.048,-0.015
2.05,-0.015
2.052,-0.025
2.054,-0.035
2.056,-0.045
2.058,-0.06
2.06,-0.07
2.062,-0.075
2.064,-0.08
2.066,-0.08
2.068,-0.075
2.07,-0.07
2.072,-0.065
2.074,-0.06
2.076,-0.055
2.078,-0.055
2.08,-0.055
2.082,-0.05
2.084,-0.05
2.086,-0.05
2.088,-0.045
2.09,-0.045
2.092,-0.04
2.094,-0.045
2.096,-0.045
2.098,-0.055
2.1,-0.065
2.102,-0.075
2.104,-0.08
2.106,-0.085
2.108,-0.085
2.11,-0.085
2.112,-0.075
2.114,-0.06
2.116,-0.05
2.118,-0.035
2.12,-0.03
2.122,-0.025
2.124,-0.025
2.126,-0.03
2.128,-0.035
2.13,-0.045
2.132,-0.055
2.134,-0.06
2.136,-0.065
2.138,-0.07
2.14,-0.07
2.142,-0.07
2.144,-0.07
2.146,-0.07
2.148,-0.075
2.15,-0.075
2.152,-0.08
2.154,-0.085
2.156,-0.085
2.158,-0.085
2.16,-0.085
2.162,-0.08
2.164,-0.075
2.166,-0.07
2.168,-0.06
2.17,-0.05
2.172,-0.04
2.174,-0.035
2.176,-0.03
2.178,-0.03
2.18,-0.03
2.182,-0.035
2.184,-0.04
2.186,-0.045
2.188,-0.055
2.19,-0.065
2.192,-0.07
2.194,-0.075
2.196,-0.08
2.198,-0.08
2.2,-0.075
2.202,-0.07
2.204,-0.065
2.206,-0.055
2.208,-0.05
2.21,-0.045
2.212,-0.04
2.214,-0.04
2.216,-0.04
2.218,-0.045
2.22,-0.05
2.222,-0.055
2.224,-0.055
2.226,-0.06
2.228,-0.06
2.23,-0.06
2.232,-0.065
2.234,-0.07
2.236,-0.075
2.238,-0.08
2.24,-0.085
2.242,-0.09
2.244,-0.09
2.246,-0.085
2.248,-0.075
2.25,-0.065
2.252,-0.05
2.254,-0.04
2.256,-0.035
2.258,-0.03
2.26,-0.035
2.262,-0.045
2.264,-0.055
2.266,-0.065
2.268,-0.07
2.27,-0.075
2.272,-0.075
2.274,-0.065
2.276,-0.06
2.278,-0.05
2.28,-0.04
2.282,-0.04
2.284,-0.035
2.286,-0.04
2.288,-0.045
2.29,-0.055
2.292,-0.065
2.294,-0.07
2.296,-0.075
2.298,-0.08
2.3,-0.08
2.302,-0.08
2.304,-0.08
2.306,-0.075
2.308,-0.07
2.31,-0.06
2.312,-0.045
2.314,-0.035
2.316,-0.02
2.318,-0.005
2.32,0.005
2.322,0.01
2.324,0.01
2.326,0.005
2.328,-0.005
2.33,-0.015
2.332,-0.025
2.334,-0.035
2.336,-0.04
2.338,-0.045
2.34,-0.045
2.342,-0.045
2.344,-0.05
2.346,-0.05
2.348,-0.055
2.35,-0.06
2.352,-0.065
2.354,-0.07
2.356,-0.07
2.358,-0.065
2.36,-0.055
2.362,-0.05
2.364,-0.045
2.366,-0.04
2.368,-0.045
2.37,-0.05
2.372,-0.06
2.374,-0.075
2.376,-0.085
2.378,-0.09
2.38,-0.095
2.382,-0.09
2.384,-0.085
2.386,-0.08
2.388,-0.075
2.39,-0.075
2.392,-0.08
2.394,-0.085
2.396,-0.085
2.398,-0.085
2.4,-0.065
2.402,-0.035
2.404,0.015
2.406,0.085
2.408,0.17
2.41,0.265
2.412,0.365
2.414,0.455
2.416,0.54
2.418,0.61
2.42,0.655
2.422,0.68
2.424,0.68
2.426,0.65
2.428,0.6
2.43,0.53
2.432,0.44
2.434,0.34
2.436,0.24
2.438,0.135
2.44,0.045
2.442,-0.03
2.444,-0.09
2.446,-0.13
2.448,-0.15
2.45,-0.15
2.452,-0.145
2.454,-0.125
2.456,-0.105
2.458,-0.085
2.46,-0.07
2.462,-0.055
2.464,-0.05
2.466,-0.045
2.468,-0.045
2.47,-0.05
2.472,-0.05
2.474,-0.055
2.476,-0.06
2.478,-0.065
2.48,-0.065
2.482,-0.065
2.484,-0.07
2.486,-0.065
2.488,-0.065
2.49,-0.065
2.492,-0.06
2.494,-0.06
2.496,-0.055
2.498,-0.05
2.5,-0.05
2.502,-0.045
2.504,-0.045
2.506,-0.04
2.508,-0.045
2.51,-0.05
2.512,-0.05
2.514,-0.055
2.516,-0.06
2.518,-0.06
2.52,-0.06
2.522,-0.055
2.524,-0.05
2.526,-0.04
2.528,-0.035
2.53,-0.035
2.532,-0.035
2.534,-0.04
2.536,-0.045
2.538,-0.05
2.54,-0.055
2.542,-0.055
2.544,-0.05
2.546,-0.04
2.548,-0.03
2.55,-0.02
2.552,-0.015
2.554,-0.01
2.556,-0.015
2.558,-0.02
2.56,-0.03
2.562,-0.04
2.564,-0.045
2.566,-0.045
2.568,-0.04
2.57,-0.03
2.572,-0.02
2.574,-0.01
2.576,0
2.578,0.005
2.58,0.005
2.582,0.005
2.584,0.005
2.586,0.005
2.588,0.005
2.59,0.01
2.592,0.015
2.594,0.025
2.596,0.04
2.598,0.055
2.6,0.07
2.602,0.08
2.604,0.095
2.606,0.105
2.608,0.115
2.61,0.12
2.612,0.13
2.614,0.135
2.616,0.135
2.618,0.135
2.62,0.135
2.622,0.135
2.624,0.135
2.626,0.14
2.628,0.145
2.63,0.15
2.632,0.16
2.634,0.17
2.636,0.175
2.638,0.185
2.64,0.185
2.642,0.185
2.644,0.18
2.646,0.17
2.648,0.16
2.65,0.155
2.652,0.145
2.654,0.14
2.656,0.14
2.658,0.135
2.66,0.135
2.662,0.135
2.664,0.135
2.666,0.125
2.668,0.12
2.67,0.11
2.672,0.1
2.674,0.09
2.676,0.08
2.678,0.07
2.68,0.06
2.682,0.05
2.684,0.04
2.686,0.025
2.688,0.01
2.69,-0.005
2.692,-0.025
2.694,-0.035
2.696,-0.045
2.698,-0.05
2.7,-0.05
2.702,-0.045
2.704,-0.04
2.706,-0.035
2.708,-0.03
2.71,-0.025
2.712,-0.03
2.714,-0.035
2.716,-0.045
2.718,-0.055
2.72,-0.06
2.722,-0.06
2.724,-0.06
2.726,-0.055
2.728,-0.05
2.73,-0.045
2.732,-0.045
2.734,-0.045
2.736,-0.05
2.738,-0.06
2.74,-0.065
2.742,-0.07
2.744,-0.075
2.746,-0.075
2.748,-0.075
2.75,-0.07
2.752,-0.07
2.754,-0.07
2.756,-0.07
2.758,-0.075
2.76,-0.08
2.762,-0.085
2.764,-0.09
2.766,-0.09
2.768,-0.085
2.77,-0.08
2.772,-0.07
2.774,-0.06
2.776,-0.055
2.778,-0.05
2.78,-0.05
2.782,-0.055
2.784,-0.065
2.786,-0.07
2.788,-0.08
2.79,-0.085
2.792,-0.08
2.794,-0.075
2.796,-0.065
2.798,-0.055
2.8,-0.04
2.802,-0.03
2.804,-0.03
2.806,-0.03
2.808,-0.035
2.81,-0.045
2.812,-0.055
2.814,-0.065
2.816,-0.075
2.818,-0.075
2.82,-0.07
2.822,-0.065
2.824,-0.055
2.826,-0.045
2.828,-0.035
2.83,-0.035
2.832,-0.035
2.834,-0.04
2.836,-0.045
2.838,-0.05
2.84,-0.05
2.842,-0.05
2.844,-0.05
2.846,-0.045
2.848,-0.045
2.85,-0.04
2.852,-0.04
2.854,-0.04
2.856,-0.04
2.858,-0.04
2.86,-0.045
2.862,-0.04
2.864,-0.04
2.866,-0.04
2.868,-0.035
2.87,-0.04
2.872,-0.045
2.874,-0.05
2.876,-0.055
2.878,-0.065
2.88,-0.065
2.882,-0.07
2.884,-0.065
2.886,-0.06
2.888,-0.055
2.89,-0.05
2.892,-0.05
2.894,-0.055
2.896,-0.06
2.898,-0.065
2.9,-0.07
2.902,-0.07
2.904,-0.065
2.906,-0.06
2.908,-0.045
2.91,-0.035
2.912,-0.02
2.914,-0.015
2.916,-0.015
2.918,-0.015
2.92,-0.025
2.922,-0.035
2.924,-0.045
2.926,-0.05
2.928,-0.055
2.93,-0.055
2.932,-0.05
2.934,-0.05
2.936,-0.045
2.938,-0.045
2.94,-0.045
2.942,-0.05
2.944,-0.05
2.946,-0.055
2.948,-0.055
2.95,-0.05
2.952,-0.05
2.954,-0.045
2.956,-0.04
2.958,-0.035
2.96,-0.035
2.962,-0.03
2.964,-0.025
2.966,-0.02
2.968,-0.015
2.97,-0.01
2.972,-0.005
2.974,0
2.976,0.005
2.978,0.005
2.98,0.005
2.982,0
2.984,-0.005
2.986,-0.005
2.988,-0.01
2.99,-0.015
2.992,-0.015
2.994,-0.02
2.996,-0.025
2.998,-0.03
3,-0.035
3.002,-0.04
3.004,-0.05
3.006,-0.055
3.008,-0.06
3.01,-0.06
3.012,-0.065
3.014,-0.07
3.016,-0.07
3.018,-0.07
3.02,-0.07
3.022,-0.07
3.024,-0.07
3.026,-0.065
3.028,-0.06
3.03,-0.06
3.032,-0.06
3.034,-0.065
3.036,-0.075
3.038,-0.095
3.04,-0.11
3.042,-0.13
3.044,-0.135
3.046,-0.13
3.048,-0.105
3.05,-0.055
3.052,0.015
3.054,0.11
3.056,0.22
3.058,0.335
3.06,0.45
3.062,0.555
3.064,0.64
3.066,0.7
3.068,0.73
3.07,0.73
3.072,0.705
3.074,0.65
3.076,0.575
3.078,0.48
3.08,0.375
3.082,0.265
3.084,0.16
3.086,0.065
3.088,-0.02
3.09,-0.08
3.092,-0.125
3.094,-0.145
3.096,-0.15
3.098,-0.14
3.1,-0.12
3.102,-0.1
3.104,-0.08
3.106,-0.065
3.108,-0.055
3.11,-0.055
3.112,-0.06
3.114,-0.065
3.116,-0.07
3.118,-0.075
3.12,-0.08
3.122,-0.08
3.124,-0.08
3.126,-0.085
3.128,-0.085
3.13,-0.09
3.132,-0.095
3.134,-0.095
3.136,-0.095
3.138,-0.09
3.14,-0.08
3.142,-0.07
3.144,-0.06
3.146,-0.05
3.148,-0.045
3.15,-0.04
3.152,-0.04
3.154,-0.045
3.156,-0.045
3.158,-0.045
3.16,-0.045
3.162,-0.04
3.164,-0.035
3.166,-0.025
3.168,-0.02
3.17,-0.02
3.172,-0.02
3.174,-0.025
3.176,-0.035
3.178,-0.04
3.18,-0.045
3.182,-0.05
3.184,-0.05
3.186,-0.05
3.188,-0.045
3.19,-0.045
3.192,-0.04
3.194,-0.04
3.196,-0.04
3.198,-0.04
3.2,-0.035
3.202,-0.025
3.204,-0.02
3.206,-0.01
3.208,0
3.21,0.005
3.212,0.01
3.214,0.01
3.216,0.005
3.218,0
3.22,-0.005
3.222,-0.01
3.224,-0.01
3.226,-0.01
3.228,-0.005
3.23,0.005
3.232,0.01
3.234,0.02
3.236,0.025
3.238,0.025
3.24,0.03
3.242,0.03
3.244,0.03
3.246,0.03
3.248,0.035
3.25,0.045
3.252,0.06
3.254,0.075
3.256,0.09
3.258,0.11
3.26,0.13
3.262,0.145
3.264,0.155
3.266,0.16
3.268,0.165
3.27,0.165
3.272,0.16
3.274,0.16
3.276,0.16
3.278,0.165
3.28,0.175
3.282,0.19
3.284,0.205
3.286,0.215
3.288,0.225
3.29,0.225
3.292,0.22
3.294,0.205
3.296,0.185
3.298,0.165
3.3,0.145
3.302,0.13
3.304,0.12
3.306,0.115
3.308,0.12
3.31,0.125
3.312,0.125
3.314,0.125
3.316,0.12
3.318,0.11
3.32,0.095
3.322,0.08
3.324,0.07
3.326,0.055
3.328,0.045
3.33,0.035
3.332,0.025
3.334,0.015
3.336,0.005
3.338,-0.005
3.34,-0.02
3.342,-0.035
3.344,-0.04
3.346,-0.045
3.348,-0.05
3.35,-0.05
3.352,-0.045
3.354,-0.04
3.356,-0.04
3.358,-0.045
3.36,-0.05
3.362,-0.06
3.364,-0.07
3.366,-0.075
3.368,-0.08
3.37,-0.08
3.372,-0.08
3.374,-0.075
3.376,-0.07
3.378,-0.065
3.38,-0.065
3.382,-0.06
3.384,-0.06
3.386,-0.06
3.388,-0.055
3.39,-0.055
3.392,-0.055
3.394,-0.055
3.396,-0.06
3.398,-0.065
3.4,-0.07
3.402,-0.075
3.404,-0.085
3.406,-0.09
3.408,-0.095
3.41,-0.095
3.412,-0.09
3.414,-0.08
3.416,-0.07
3.418,-0.065
3.42,-0.06
3.422,-0.055
3.424,-0.055
3.426,-0.06
3.428,-0.065
3.43,-0.065
3.432,-0.065
3.434,-0.06
3.436,-0.05
3.438,-0.035
3.44,-0.025
3.442,-0.02
3.444,-0.02
3.446,-0.025
3.448,-0.04
3.45,-0.055
3.452,-0.065
3.454,-0.075
3.456,-0.08
3.458,-0.075
3.46,-0.065
3.462,-0.05
3.464,-0.035
3.466,-0.025
3.468,-0.02
3.47,-0.02
3.472,-0.025
3.474,-0.04
3.476,-0.05
3.478,-0.06
3.48,-0.065
3.482,-0.065
3.484,-0.065
3.486,-0.06
3.488,-0.055
3.49,-0.05
3.492,-0.05
3.494,-0.05
3.496,-0.055
3.498,-0.055
3.5,-0.06
3.502,-0.055
3.504,-0.055
3.506,-0.055
3.508,-0.05
3.51,-0.05
3.512,-0.05
3.514,-0.05
3.516,-0.045
3.518,-0.04
3.52,-0.035
3.522,-0.03
3.524,-0.025
3.526,-0.02
3.528,-0.02
3.53,-0.03
3.532,-0.04
3.534,-0.055
3.536,-0.07
3.538,-0.085
3.54,-0.095
3.542,-0.095
3.544,-0.09
3.546,-0.085
3.548,-0.07
3.55,-0.06
3.552,-0.055
3.554,-0.055
3.556,-0.06
3.558,-0.065
3.56,-0.075
3.562,-0.075
3.564,-0.08
3.566,-0.075
3.568,-0.065
3.57,-0.055
3.572,-0.04
3.574,-0.03
3.576,-0.025
3.578,-0.025
3.58,-0.025
3.582,-0.03
3.584,-0.04
3.586,-0.045
3.588,-0.055
3.59,-0.06
3.592,-0.065
3.594,-0.065
3.596,-0.065
3.598,-0.055
3.6,-0.045
3.602,-0.035
3.604,-0.02
3.606,-0.005
3.608,0.01
3.61,0.015
3.612,0.02
3.614,0.02
3.616,0.01
3.618,0
3.62,-0.01
3.622,-0.02
3.624,-0.02
3.626,-0.02
3.628,-0.02
3.63,-0.015
3.632,-0.01
3.634,-0.015
3.636,-0.025
3.638,-0.04
3.64,-0.06
3.642,-0.08
3.644,-0.095
3.646,-0.1
3.648,-0.095
3.65,-0.085
3.652,-0.065
3.654,-0.045
3.656,-0.03
3.658,-0.02
3.66,-0.025
3.662,-0.03
3.664,-0.045
3.666,-0.065
3.668,-0.08
3.67,-0.09
3.672,-0.095
3.674,-0.1
3.676,-0.105
3.678,-0.11
3.68,-0.12
3.682,-0.125
3.684,-0.13
3.686,-0.125
3.688,-0.1
3.69,-0.055
3.692,0.02
3.694,0.12
3.696,0.235
3.698,0.355
3.7,0.475
3.702,0.58
3.704,0.66
3.706,0.71
3.708,0.73
3.71,0.715
3.712,0.68
3.714,0.615
3.716,0.54
3.718,0.445
3.72,0.345
3.722,0.245
3.724,0.14
3.726,0.05
3.728,-0.03
3.73,-0.095
3.732,-0.135
3.734,-0.155
3.736,-0.15
3.738,-0.135
3.74,-0.115
3.742,-0.09
3.744,-0.07
3.746,-0.06
3.748,-0.06
3.75,-0.065
3.752,-0.08
3.754,-0.09
3.756,-0.095
3.758,-0.095
3.76,-0.09
3.762,-0.08
3.764,-0.065
3.766,-0.05
3.768,-0.045
3.77,-0.05
3.772,-0.055
3.774,-0.07
3.776,-0.085
3.778,-0.095
3.78,-0.105
3.782,-0.105
3.784,-0.1
3.786,-0.09
3.788,-0.075
3.79,-0.065
3.792,-0.055
3.794,-0.045
3.796,-0.045
3.798,-0.05
3.8,-0.05
3.802,-0.055
3.804,-0.055
3.806,-0.055
3.808,-0.055
3.81,-0.05
3.812,-0.05
3.814,-0.05
3.816,-0.055
3.818,-0.055
3.82,-0.06
3.822,-0.06
3.824,-0.06
3.826,-0.055
3.828,-0.05
3.83,-0.04
3.832,-0.035
3.834,-0.035
3.836,-0.035
3.838,-0.04
3.84,-0.045
3.842,-0.05
3.844,-0.055
3.846,-0.055
3.848,-0.05
3.85,-0.04
3.852,-0.03
3.854,-0.015
3.856,-0.005
3.858,0
3.86,0.005
3.862,0.005
3.864,0
3.866,-0.005
3.868,-0.005
3.87,0
3.872,0.005
3.874,0.015
3.876,0.025
3.878,0.035
3.88,0.04
3.882,0.045
3.884,0.045
3.886,0.045
3.888,0.045
3.89,0.045
3.892,0.055
3.894,0.07
3.896,0.085
3.898,0.105
3.9,0.12
3.902,0.13
3.904,0.135
3.906,0.14
3.908,0.14
3.91,0.14
3.912,0.14
3.914,0.145
3.916,0.155
3.918,0.17
3.92,0.185
3.922,0.195
3.924,0.2
3.926,0.195
3.928,0.19
3.93,0.175
3.932,0.16
3.934,0.145
3.936,0.135
3.938,0.13
3.94,0.13
3.942,0.135
3.944,0.135
3.946,0.135
3.948,0.13
3.95,0.12
3.952,0.105
3.954,0.09
3.956,0.075
3.958,0.065
3.96,0.06
3.962,0.055
3.964,0.055
3.966,0.05
3.968,0.045
3.97,0.04
3.972,0.025
3.974,0.01
3.976,-0.01
3.978,-0.03
3.98,-0.045
3.982,-0.055
3.984,-0.06
3.986,-0.06
3.988,-0.055
3.99,-0.05
3.992,-0.04
3.994,-0.035
3.996,-0.03
3.998,-0.03
4,-0.035
4.002,-0.045
4.004,-0.06
4.006,-0.07
4.008,-0.085
4.01,-0.1
4.012,-0.105
4.014,-0.11
4.016,-0.11
4.018,-0.105
4.02,-0.095
4.022,-0.085
4.024,-0.08
4.026,-0.075
4.028,-0.075
4.03,-0.08
4.032,-0.085
4.034,-0.09
4.036,-0.095
4.038,-0.1
4.04,-0.095
4.042,-0.095
4.044,-0.085
4.046,-0.08
4.048,-0.075
4.05,-0.07
4.052,-0.065
4.054,-0.065
4.056,-0.07
4.058,-0.07
4.06,-0.075
4.062,-0.075
4.064,-0.075
4.066,-0.075
4.068,-0.075
4.07,-0.075
4.072,-0.075
4.074,-0.08
4.076,-0.08
4.078,-0.08
4.08,-0.08
4.082,-0.075
4.084,-0.07
4.086,-0.07
4.088,-0.065
4.09,-0.065
4.092,-0.065
4.094,-0.065
4.096,-0.065
4.098,-0.065
4.1,-0.065
4.102,-0.06
4.104,-0.055
4.106,-0.05
4.108,-0.045
4.11,-0.04
4.112,-0.04
4.114,-0.04
4.116,-0.045
4.118,-0.05
4.12,-0.055
4.122,-0.06
4.124,-0.06
4.126,-0.06
4.128,-0.055
4.13,-0.05
4.132,-0.045
4.134,-0.04
4.136,-0.04
4.138,-0.04
4.14,-0.045
4.142,-0.05
4.144,-0.055
4.146,-0.055
4.148,-0.055
4.15,-0.05
4.152,-0.045
4.154,-0.04
4.156,-0.035
4.158,-0.035
4.16,-0.035
4.162,-0.045
4.164,-0.055
4.166,-0.065
4.168,-0.075
4.17,-0.08
4.172,-0.085
4.174,-0.085
4.176,-0.08
4.178,-0.07
4.18,-0.06
4.182,-0.05
4.184,-0.045
4.186,-0.035
4.188,-0.035
4.19,-0.03
4.192,-0.03
4.194,-0.03
4.196,-0.03
4.198,-0.03
4.2,-0.03
4.202,-0.035
4.204,-0.035
4.206,-0.04
4.208,-0.045
4.21,-0.05
4.212,-0.05
4.214,-0.05
4.216,-0.045
4.218,-0.04
4.22,-0.035
4.222,-0.03
4.224,-0.025
4.226,-0.02
4.228,-0.02
4.23,-0.02
4.232,-0.025
4.234,-0.025
4.236,-0.025
4.238,-0.025
4.24,-0.02
4.242,-0.015
4.244,-0.01
4.246,-0.005
4.248,-0.005
4.25,-0.01
4.252,-0.015
4.254,-0.02
4.256,-0.03
4.258,-0.035
4.26,-0.04
4.262,-0.045
4.264,-0.045
4.266,-0.04
4.268,-0.04
4.27,-0.035
4.272,-0.03
4.274,-0.03
4.276,-0.03
4.278,-0.03
4.28,-0.03
4.282,-0.03
4.284,-0.035
4.286,-0.04
4.288,-0.045
4.29,-0.05
4.292,-0.06
4.294,-0.07
4.296,-0.075
4.298,-0.085
4.3,-0.095
4.302,-0.1
4.304,-0.105
4.306,-0.11
4.308,-0.11
4.31,-0.115
4.312,-0.115
4.314,-0.105
4.316,-0.095
4.318,-0.065
4.32,-0.025
4.322,0.04
4.324,0.12
4.326,0.21
4.328,0.315
4.33,0.42
4.332,0.515
4.334,0.595
4.336,0.645
4.338,0.665
4.34,0.65
4.342,0.605
4.344,0.53
4.346,0.43
4.348,0.325
4.35,0.215
4.352,0.115
4.354,0.02
4.356,-0.055
4.358,-0.11
4.36,-0.15
4.362,-0.17
4.364,-0.18
4.366,-0.175
4.368,-0.165
4.37,-0.145
4.372,-0.125
4.374,-0.11
4.376,-0.09
4.378,-0.08
4.38,-0.075
4.382,-0.08
4.384,-0.085
4.386,-0.09
4.388,-0.095
4.39,-0.1
4.392,-0.095
4.394,-0.09
4.396,-0.08
4.398,-0.065
4.4,-0.05
4.402,-0.04
4.404,-0.035
4.406,-0.035
4.408,-0.035
4.41,-0.04
4.412,-0.05
4.414,-0.055
4.416,-0.06
4.418,-0.06
4.42,-0.06
4.422,-0.055
4.424,-0.05
4.426,-0.045
4.428,-0.04
4.43,-0.035
4.432,-0.03
4.434,-0.03
4.436,-0.025
4.438,-0.025
4.44,-0.03
4.442,-0.035
4.444,-0.04
4.446,-0.05
4.448,-0.055
4.45,-0.06
4.452,-0.055
4.454,-0.05
4.456,-0.04
4.458,-0.03
4.46,-0.015
4.462,-0.005
4.464,-0.005
4.466,-0.005
4.468,-0.01
4.47,-0.02
4.472,-0.03
4.474,-0.04
4.476,-0.045
4.478,-0.045
4.48,-0.04
4.482,-0.03
4.484,-0.015
4.486,-0.005
4.488,0.005
4.49,0.015
4.492,0.02
4.494,0.02
4.496,0.025
4.498,0.025
4.5,0.03
4.502,0.03
4.504,0.035
4.506,0.04
4.508,0.04
4.51,0.045
4.512,0.055
4.514,0.06
4.516,0.075
4.518,0.09
4.52,0.11
4.522,0.13
4.524,0.145
4.526,0.16
4.528,0.17
4.53,0.17
4.532,0.17
4.534,0.165
4.536,0.155
4.538,0.155
4.54,0.155
4.542,0.16
4.544,0.165
4.546,0.175
4.548,0.185
4.55,0.195
4.552,0.205
4.554,0.205
4.556,0.21
4.558,0.21
4.56,0.21
4.562,0.21
4.564,0.205
4.566,0.2
4.568,0.195
4.57,0.19
4.572,0.18
4.574,0.17
4.576,0.165
4.578,0.16
4.58,0.165
4.582,0.17
4.584,0.175
4.586,0.17
4.588,0.155
4.59,0.125
4.592,0.085
4.594,0.03
4.596,-0.025
4.598,-0.08
4.6,-0.115
4.602,-0.135
4.604,-0.13
4.606,-0.11
4.608,-0.075
4.61,-0.04
4.612,-0.01
4.614,0.005
4.616,0
4.618,-0.015
4.62,-0.04
4.622,-0.07
4.624,-0.085
4.626,-0.095
4.628,-0.09
4.63,-0.075
4.632,-0.055
4.634,-0.04
4.636,-0.03
4.638,-0.03
4.64,-0.04
4.642,-0.05
4.644,-0.065
4.646,-0.08
4.648,-0.085
4.65,-0.085
4.652,-0.08
4.654,-0.075
4.656,-0.07
4.658,-0.07
4.66,-0.075
4.662,-0.075
4.664,-0.08
4.666,-0.08
4.668,-0.075
4.67,-0.07
4.672,-0.06
4.674,-0.055
4.676,-0.05
4.678,-0.05
4.68,-0.055
4.682,-0.06
4.684,-0.07
4.686,-0.075
4.688,-0.075
4.69,-0.075
4.692,-0.07
4.694,-0.07
4.696,-0.065
4.698,-0.07
4.7,-0.075
4.702,-0.08
4.704,-0.085
4.706,-0.085
4.708,-0.08
4.71,-0.065
4.712,-0.05
4.714,-0.035
4.716,-0.025
4.718,-0.015
4.72,-0.015
4.722,-0.02
4.724,-0.03
4.726,-0.035
4.728,-0.045
4.73,-0.045
4.732,-0.04
4.734,-0.03
4.736,-0.02
4.738,-0.015
4.74,-0.015
4.742,-0.025
4.744,-0.035
4.746,-0.05
4.748,-0.07
4.75,-0.08
4.752,-0.09
4.754,-0.09
4.756,-0.08
4.758,-0.07
4.76,-0.055
4.762,-0.04
4.764,-0.025
4.766,-0.02
4.768,-0.015
4.77,-0.015
4.772,-0.015
4.774,-0.02
4.776,-0.025
4.778,-0.03
4.78,-0.035
4.782,-0.04
4.784,-0.04
4.786,-0.04
4.788,-0.04
4.79,-0.04
4.792,-0.04
4.794,-0.04
4.796,-0.04
4.798,-0.04
4.8,-0.04
4.802,-0.045
4.804,-0.045
4.806,-0.045
4.808,-0.04
4.81,-0.035
4.812,-0.03
4.814,-0.02
4.816,-0.005
4.818,0.005
4.82,0.01
4.822,0.01
4.824,0.01
4.826,0
4.828,-0.01
4.83,-0.015
4.832,-0.025
4.834,-0.025
4.836,-0.02
4.838,-0.015
4.84,-0.01
4.842,0
4.844,0
4.846,0
4.848,-0.01
4.85,-0.02
4.852,-0.035
4.854,-0.045
4.856,-0.05
4.858,-0.05
4.86,-0.04
4.862,-0.03
4.864,-0.015
4.866,-0.005
4.868,0.005
4.87,0.005
4.872,0
4.874,-0.01
4.876,-0.025
4.878,-0.045
4.88,-0.065
4.882,-0.08
4.884,-0.09
4.886,-0.095
4.888,-0.095
4.89,-0.09
4.892,-0.08
4.894,-0.075
4.896,-0.065
4.898,-0.065
4.9,-0.065
4.902,-0.07
4.904,-0.08
4.906,-0.09
4.908,-0.095
4.91,-0.09
4.912,-0.07
4.914,-0.03
4.916,0.03
4.918,0.105
4.92,0.195
4.922,0.3
4.924,0.4
4.926,0.49
4.928,0.565
4.93,0.62
4.932,0.65
4.934,0.65
4.936,0.625
4.938,0.57
4.94,0.5
4.942,0.405
4.944,0.305
4.946,0.2
4.948,0.1
4.95,0.01
4.952,-0.065
4.954,-0.12
4.956,-0.15
4.958,-0.16
4.96,-0.15
4.962,-0.13
4.964,-0.11
4.966,-0.085
4.968,-0.07
4.97,-0.065
4.972,-0.07
4.974,-0.08
4.976,-0.09
4.978,-0.1
4.98,-0.11
4.982,-0.11
4.984,-0.105
4.986,-0.1
4.988,-0.09
4.99,-0.085
4.992,-0.08
4.994,-0.08
4.996,-0.08
4.998,-0.075
5,-0.07
5.002,-0.06
5.004,-0.045
5.006,-0.035
5.008,-0.025
5.01,-0.02
5.012,-0.025
5.014,-0.035
5.016,-0.055
5.018,-0.07
5.02,-0.085
5.022,-0.095
5.024,-0.1
5.026,-0.09
5.028,-0.08
5.03,-0.065
5.032,-0.05
5.034,-0.04
5.036,-0.035
5.038,-0.03
5.04,-0.035
5.042,-0.035
5.044,-0.035
5.046,-0.03
5.048,-0.025
5.05,-0.02
5.052,-0.015
5.054,-0.01
5.056,-0.005
5.058,-0.01
5.06,-0.015
5.062,-0.02
5.064,-0.03
5.066,-0.035
5.068,-0.04
5.07,-0.035
5.072,-0.035
5.074,-0.025
5.076,-0.02
5.078,-0.01
5.08,-0.005
5.082,0
5.084,0
5.086,0
5.088,0
5.09,0.005
5.092,0.005
5.094,0.005
5.096,0.01
5.098,0.015
5.1,0.02
5.102,0.025
5.104,0.03
5.106,0.035
5.108,0.045
5.11,0.055
5.112,0.06
5.114,0.075
5.116,0.085
5.118,0.1
5.12,0.11
5.122,0.12
5.124,0.13
5.126,0.14
5.128,0.145
5.13,0.15
5.132,0.155
5.134,0.16
5.136,0.165
5.138,0.17
5.14,0.175
5.142,0.185
5.144,0.185
5.146,0.19
5.148,0.19
5.15,0.185
5.152,0.185
5.154,0.18
5.156,0.175
5.158,0.175
5.16,0.17
5.162,0.17
5.164,0.165
5.166,0.16
5.168,0.155
5.17,0.145
5.172,0.135
5.174,0.12
5.176,0.11
5.178,0.095
5.18,0.085
5.182,0.075
5.184,0.07
5.186,0.065
5.188,0.06
5.19,0.055
5.192,0.05
5.194,0.045
5.196,0.035
5.198,0.025
5.2,0.015
5.202,0
5.204,-0.01
5.206,-0.02
5.208,-0.03
5.21,-0.04
5.212,-0.045
5.214,-0.055
5.216,-0.055
5.218,-0.06
5.22,-0.065
5.222,-0.065
5.224,-0.07
5.226,-0.075
5.228,-0.075
5.23,-0.075
5.232,-0.08
5.234,-0.08
5.236,-0.075
5.238,-0.075
5.24,-0.075
5.242,-0.075
5.244,-0.075
5.246,-0.075
5.248,-0.08
5.25,-0.085
5.252,-0.085
5.254,-0.085
5.256,-0.085
5.258,-0.08
5.26,-0.08
5.262,-0.075
5.264,-0.07
5.266,-0.07
5.268,-0.075
5.27,-0.08
5.272,-0.08
5.274,-0.085
5.276,-0.09
5.278,-0.085
5.28,-0.085
5.282,-0.08
5.284,-0.08
5.286,-0.08
5.288,-0.08
5.29,-0.085
5.292,-0.085
5.294,-0.09
5.296,-0.09
5.298,-0.09
5.3,-0.08
5.302,-0.07
5.304,-0.055
5.306,-0.04
5.308,-0.03
5.31,-0.025
5.312,-0.03
5.314,-0.04
5.316,-0.05
5.318,-0.065
5.32,-0.08
5.322,-0.085
5.324,-0.085
5.326,-0.08
5.328,-0.07
5.33,-0.055
5.332,-0.045
5.334,-0.03
5.336,-0.025
5.338,-0.025
5.34,-0.03
5.342,-0.035
5.344,-0.045
5.346,-0.05
5.348,-0.055
5.35,-0.055
5.352,-0.055
5.354,-0.055
5.356,-0.05
5.358,-0.05
5.36,-0.05
5.362,-0.055
5.364,-0.06
5.366,-0.065
5.368,-0.07
5.37,-0.075
5.372,-0.075
5.374,-0.075
5.376,-0.07
5.378,-0.06
5.38,-0.055
5.382,-0.05
5.384,-0.045
5.386,-0.045
5.388,-0.045
5.39,-0.05
5.392,-0.05
5.394,-0.055
5.396,-0.05
5.398,-0.05
5.4,-0.045
5.402,-0.035
5.404,-0.03
5.406,-0.025
5.408,-0.025
5.41,-0.025
5.412,-0.025
5.414,-0.025
5.416,-0.03
5.418,-0.035
5.42,-0.04
5.422,-0.045
5.424,-0.055
5.426,-0.06
5.428,-0.065
5.43,-0.07
5.432,-0.07
5.434,-0.07
5.436,-0.06
5.438,-0.055
5.44,-0.045
5.442,-0.035
5.444,-0.03
5.446,-0.025
5.448,-0.025
5.45,-0.025
5.452,-0.025
5.454,-0.03
5.456,-0.03
5.458,-0.025
5.46,-0.02
5.462,-0.015
5.464,-0.01
5.466,-0.005
5.468,0
5.47,-0.005
5.472,-0.015
5.474,-0.025
5.476,-0.035
5.478,-0.045
5.48,-0.05
5.482,-0.055
5.484,-0.055
5.486,-0.055
5.488,-0.05
5.49,-0.05
5.492,-0.055
5.494,-0.06
5.496,-0.065
5.498,-0.075
5.5,-0.085
5.502,-0.09
5.504,-0.095
5.506,-0.095
5.508,-0.095
5.51,-0.095
5.512,-0.095
5.514,-0.1
5.516,-0.11
5.518,-0.115
5.52,-0.12
5.522,-0.115
5.524,-0.09
5.526,-0.05
5.528,0.01
5.53,0.09
5.532,0.185
5.534,0.285
5.536,0.39
5.538,0.48
5.54,0.56
5.542,0.62
5.544,0.66
5.546,0.67
5.548,0.66
5.55,0.625
5.552,0.575
5.554,0.5
5.556,0.41
5.558,0.31
5.56,0.2
5.562,0.095
5.564,-0.005
5.566,-0.08
5.568,-0.14
5.57,-0.17
5.572,-0.175
5.574,-0.155
5.576,-0.125
5.578,-0.09
5.58,-0.065
5.582,-0.045
5.584,-0.045
5.586,-0.055
5.588,-0.075
5.59,-0.095
5.592,-0.115
5.594,-0.12
5.596,-0.115
5.598,-0.095
5.6,-0.07
5.602,-0.04
5.604,-0.02
5.606,-0.005
5.608,-0.005
5.61,-0.01
5.612,-0.025
5.614,-0.045
5.616,-0.06
5.618,-0.07
5.62,-0.07
5.622,-0.065
5.624,-0.055
5.626,-0.045
5.628,-0.035
5.63,-0.03
5.632,-0.03
5.634,-0.03
5.636,-0.035
5.638,-0.04
5.64,-0.045
5.642,-0.045
5.644,-0.045
5.646,-0.04
5.648,-0.035
5.65,-0.03
5.652,-0.03
5.654,-0.03
5.656,-0.035
5.658,-0.04
5.66,-0.045
5.662,-0.05
5.664,-0.05
5.666,-0.045
5.668,-0.03
5.67,-0.02
5.672,0
5.674,0.015
5.676,0.025
5.678,0.03
5.68,0.025
5.682,0.015
5.684,0.005
5.686,-0.01
5.688,-0.02
5.69,-0.03
5.692,-0.03
5.694,-0.025
5.696,-0.015
5.698,-0.005
5.7,0.005
5.702,0.015
5.704,0.015
5.706,0.01
5.708,0.01
5.71,0.005
5.712,0.005
5.714,0.01
5.716,0.02
5.718,0.035
5.72,0.05
5.722,0.065
5.724,0.075
5.726,0.08
5.728,0.08
5.73,0.08
5.732,0.075
5.734,0.075
5.736,0.08
5.738,0.085
5.74,0.095
5.742,0.11
5.744,0.12
5.746,0.13
5.748,0.14
5.75,0.145
5.752,0.15
5.754,0.155
5.756,0.155
5.758,0.16
5.76,0.16
5.762,0.16
5.764,0.155
5.766,0.15
5.768,0.145
5.77,0.14
5.772,0.135
5.774,0.13
5.776,0.125
5.778,0.125
5.78,0.125
5.782,0.12
5.784,0.12
5.786,0.115
5.788,0.105
5.79,0.095
5.792,0.085
5.794,0.075
5.796,0.065
5.798,0.055
5.8,0.05
5.802,0.04
5.804,0.035
5.806,0.025
5.808,0.015
5.81,0.005
5.812,-0.005
5.814,-0.015
5.816,-0.025
5.818,-0.035
5.82,-0.04
5.822,-0.045
5.824,-0.045
5.826,-0.045
5.828,-0.05
5.83,-0.05
5.832,-0.055
5.834,-0.06
5.836,-0.07
5.838,-0.075
5.84,-0.075
5.842,-0.08
5.844,-0.075
5.846,-0.07
5.848,-0.065
5.85,-0.06
5.852,-0.06
5.854,-0.06
5.856,-0.06
5.858,-0.065
5.86,-0.075
5.862,-0.08
5.864,-0.085
5.866,-0.085
5.868,-0.08
5.87,-0.07
5.872,-0.06
5.874,-0.045
5.876,-0.04
5.878,-0.035
5.88,-0.04
5.882,-0.05
5.884,-0.065
5.886,-0.08
5.888,-0.095
5.89,-0.105
5.892,-0.105
5.894,-0.1
5.896,-0.09
5.898,-0.075
5.9,-0.06
5.902,-0.045
5.904,-0.04
5.906,-0.035
5.908,-0.04
5.91,-0.05
5.912,-0.06
5.914,-0.07
5.916,-0.08
5.918,-0.085
5.92,-0.08
5.922,-0.075
5.924,-0.07
5.926,-0.065
5.928,-0.06
5.93,-0.06
5.932,-0.06
5.934,-0.065
5.936,-0.075
5.938,-0.08
5.94,-0.085
5.942,-0.085
5.944,-0.085
5.946,-0.08
5.948,-0.07
5.95,-0.065
5.952,-0.055
5.954,-0.05
5.956,-0.05
5.958,-0.05
5.96,-0.05
5.962,-0.055
5.964,-0.055
5.966,-0.055
5.968,-0.055
5.97,-0.055
5.972,-0.05
5.974,-0.045
5.976,-0.04
5.978,-0.04
5.98,-0.045
5.982,-0.045
5.984,-0.05
5.986,-0.05
5.988,-0.05
5.99,-0.055
5.992,-0.05
5.994,-0.05
5.996,-0.05
5.998,-0.05
6,-0.05
6.002,-0.055
6.004,-0.055
6.006,-0.06
6.008,-0.06
6.01,-0.06
6.012,-0.065
6.014,-0.065
6.016,-0.065
6.018,-0.065
6.02,-0.07
6.022,-0.07
6.024,-0.07
6.026,-0.065
6.028,-0.06
6.03,-0.055
6.032,-0.045
6.034,-0.04
6.036,-0.035
6.038,-0.035
6.04,-0.035
6.042,-0.04
6.044,-0.05
6.046,-0.055
6.048,-0.06
6.05,-0.06
6.052,-0.06
6.054,-0.055
6.056,-0.05
6.058,-0.045
6.06,-0.04
6.062,-0.035
6.064,-0.04
6.066,-0.04
6.068,-0.045
6.07,-0.05
6.072,-0.05
6.074,-0.055
6.076,-0.05
6.078,-0.05
6.08,-0.045
6.082,-0.04
6.084,-0.04
6.086,-0.035
6.088,-0.035
6.09,-0.035
6.092,-0.03
6.094,-0.025
6.096,-0.02
6.098,-0.015
6.1,-0.01
6.102,-0.005
6.104,-0.005
6.106,0
6.108,0
6.11,-0.005
6.112,-0.005
6.114,-0.01
6.116,-0.015
6.118,-0.02
6.12,-0.03
6.122,-0.035
6.124,-0.045
6.126,-0.05
6.128,-0.055
6.13,-0.06
6.132,-0.065
6.134,-0.065
6.136,-0.07
6.138,-0.075
6.14,-0.08
6.142,-0.085
6.144,-0.085
6.146,-0.085
6.148,-0.08
6.15,-0.07
6.152,-0.055
6.154,-0.045
6.156,-0.04
6.158,-0.04
6.16,-0.05
6.162,-0.07
6.164,-0.09
6.166,-0.115
6.168,-0.125
6.17,-0.12
6.172,-0.095
6.174,-0.05
6.176,0.02
6.178,0.11
6.18,0.21
6.182,0.31
6.184,0.405
6.186,0.48
6.188,0.54
6.19,0.58
6.192,0.595
6.194,0.59
6.196,0.57
6.198,0.535
6.2,0.49
6.202,0.43
6.204,0.36
6.206,0.285
6.208,0.205
6.21,0.125
6.212,0.05
6.214,-0.015
6.216,-0.07
6.218,-0.105
6.22,-0.12
6.222,-0.115
6.224,-0.105
6.226,-0.085
6.228,-0.06
6.23,-0.045
6.232,-0.035
6.234,-0.035
6.236,-0.045
6.238,-0.055
6.24,-0.065
6.242,-0.075
6.244,-0.08
6.246,-0.08
6.248,-0.075
6.25,-0.07
6.252,-0.07
6.254,-0.07
6.256,-0.07
6.258,-0.07
6.26,-0.075
6.262,-0.075
6.264,-0.07
6.266,-0.065
6.268,-0.055
6.27,-0.045
6.272,-0.04
6.274,-0.035
6.276,-0.04
6.278,-0.045
6.28,-0.05
6.282,-0.055
6.284,-0.06
6.286,-0.06
6.288,-0.05
6.29,-0.045
6.292,-0.035
6.294,-0.025
6.296,-0.02
6.298,-0.025
6.3,-0.03
6.302,-0.04
6.304,-0.05
6.306,-0.055
6.308,-0.06
6.31,-0.055
6.312,-0.05
6.314,-0.035
6.316,-0.025
6.318,-0.015
6.32,-0.01
6.322,-0.01
6.324,-0.015
6.326,-0.02
6.328,-0.025
6.33,-0.03
6.332,-0.03
6.334,-0.03
6.336,-0.03
6.338,-0.025
6.34,-0.02
6.342,-0.015
6.344,-0.015
6.346,-0.01
6.348,-0.01
6.35,-0.005
6.352,0
6.354,0.01
6.356,0.015
6.358,0.02
6.36,0.025
6.362,0.03
6.364,0.025
6.366,0.025
6.368,0.025
6.37,0.025
6.372,0.025
6.374,0.03
6.376,0.04
6.378,0.055
6.38,0.07
6.382,0.085
6.384,0.095
6.386,0.105
6.388,0.11
6.39,0.11
6.392,0.11
6.394,0.105
6.396,0.11
6.398,0.11
6.4,0.12
6.402,0.13
6.404,0.145
6.406,0.16
6.408,0.17
6.41,0.175
6.412,0.175
6.414,0.17
6.416,0.155
6.418,0.14
6.42,0.125
6.422,0.11
6.424,0.105
6.426,0.1
6.428,0.105
6.43,0.11
6.432,0.115
6.434,0.12
6.436,0.12
6.438,0.115
6.44,0.11
6.442,0.095
6.444,0.085
6.446,0.07
6.448,0.06
6.45,0.045
6.452,0.03
6.454,0.02
6.456,0.005
6.458,-0.005
6.46,-0.015
6.462,-0.02
6.464,-0.02
6.466,-0.015
6.468,-0.005
6.47,0
6.472,0
6.474,0
6.476,-0.01
6.478,-0.025
6.48,-0.045
6.482,-0.065
6.484,-0.08
6.486,-0.09
6.488,-0.095
6.49,-0.09
6.492,-0.08
6.494,-0.065
6.496,-0.055
6.498,-0.05
6.5,-0.05
6.502,-0.06
6.504,-0.07
6.506,-0.08
6.508,-0.085
6.51,-0.09
6.512,-0.085
6.514,-0.075
6.516,-0.065
6.518,-0.055
6.52,-0.05
6.522,-0.045
6.524,-0.045
6.526,-0.05
6.528,-0.055
6.53,-0.06
6.532,-0.065
6.534,-0.065
6.536,-0.065
6.538,-0.06
6.54,-0.055
6.542,-0.05
6.544,-0.05
6.546,-0.05
6.548,-0.055
6.55,-0.06
6.552,-0.06
6.554,-0.06
6.556,-0.055
6.558,-0.05
6.56,-0.045
6.562,-0.035
6.564,-0.03
6.566,-0.03
6.568,-0.035
6.57,-0.04
6.572,-0.05
6.574,-0.06
6.576,-0.065
6.578,-0.07
6.58,-0.07
6.582,-0.065
6.584,-0.055
6.586,-0.045
6.588,-0.035
6.59,-0.025
6.592,-0.02
6.594,-0.02
6.596,-0.025
6.598,-0.03
6.6,-0.04
6.602,-0.05
6.604,-0.055
6.606,-0.055
6.608,-0.05
6.61,-0.045
6.612,-0.04
6.614,-0.03
6.616,-0.025
6.618,-0.025
6.62,-0.025
6.622,-0.03
6.624,-0.04
6.626,-0.045
6.628,-0.05
6.63,-0.055
6.632,-0.055
6.634,-0.055
6.636,-0.05
6.638,-0.045
6.64,-0.04
6.642,-0.04
6.644,-0.04
6.646,-0.04
6.648,-0.04
6.65,-0.045
6.652,-0.05
6.654,-0.05
6.656,-0.045
6.658,-0.045
6.66,-0.04
6.662,-0.035
6.664,-0.03
6.666,-0.03
6.668,-0.03
6.67,-0.03
6.672,-0.035
6.674,-0.04
6.676,-0.045
6.678,-0.045
6.68,-0.045
6.682,-0.045
6.684,-0.04
6.686,-0.035
6.688,-0.03
6.69,-0.025
6.692,-0.025
6.694,-0.02
6.696,-0.02
6.698,-0.02
6.7,-0.02
6.702,-0.02
6.704,-0.02
6.706,-0.025
6.708,-0.03
6.71,-0.04
6.712,-0.045
6.714,-0.055
6.716,-0.06
6.718,-0.06
6.72,-0.06
6.722,-0.055
6.724,-0.045
6.726,-0.035
6.728,-0.025
6.73,-0.02
6.732,-0.02
6.734,-0.025
6.736,-0.035
6.738,-0.045
6.74,-0.055
6.742,-0.06
6.744,-0.065
6.746,-0.065
6.748,-0.065
6.75,-0.06
6.752,-0.05
6.754,-0.045
6.756,-0.045
6.758,-0.04
6.76,-0.04
6.762,-0.04
6.764,-0.035
6.766,-0.035
6.768,-0.035
6.77,-0.03
6.772,-0.03
6.774,-0.03
6.776,-0.03
6.778,-0.035
6.78,-0.04
6.782,-0.04
6.784,-0.045
6.786,-0.04
6.788,-0.04
6.79,-0.035
6.792,-0.035
6.794,-0.03
6.796,-0.03
6.798,-0.035
6.8,-0.035
6.802,-0.035
6.804,-0.035
6.806,-0.03
6.808,-0.025
6.81,-0.015
6.812,0
6.814,0.01
6.816,0.015
6.818,0.02
6.82,0.02
6.822,0.015
6.824,0.01
6.826,0.005
6.828,-0.005
6.83,-0.005
6.832,-0.005
6.834,-0.005
6.836,-0.005
6.838,0
6.84,0
6.842,0
6.844,0
6.846,-0.005
6.848,-0.01
6.85,-0.015
6.852,-0.02
6.854,-0.03
6.856,-0.035
6.858,-0.045
6.86,-0.05
6.862,-0.055
6.864,-0.055
6.866,-0.055
6.868,-0.05
6.87,-0.045
6.872,-0.045
6.874,-0.045
6.876,-0.05
6.878,-0.06
6.88,-0.07
6.882,-0.085
6.884,-0.095
6.886,-0.09
6.888,-0.075
6.89,-0.04
6.892,0.02
6.894,0.095
6.896,0.19
6.898,0.29
6.9,0.39
6.902,0.48
6.904,0.555
6.906,0.615
6.908,0.65
6.91,0.66
6.912,0.65
6.914,0.62
6.916,0.575
6.918,0.51
6.92,0.435
6.922,0.35
6.924,0.26
6.926,0.165
6.928,0.075
6.93,0
6.932,-0.06
6.934,-0.105
6.936,-0.125
6.938,-0.125
6.94,-0.11
6.942,-0.09
6.944,-0.06
6.946,-0.04
6.948,-0.025
6.95,-0.02
6.952,-0.025
6.954,-0.04
6.956,-0.055
6.958,-0.07
6.96,-0.08
6.962,-0.08
6.964,-0.075
6.966,-0.07
6.968,-0.06
6.97,-0.05
6.972,-0.045
6.974,-0.04
6.976,-0.04
6.978,-0.045
6.98,-0.045
6.982,-0.045
6.984,-0.04
6.986,-0.04
6.988,-0.035
6.99,-0.03
6.992,-0.03
6.994,-0.03
6.996,-0.035
6.998,-0.04
7,-0.045
7.002,-0.05
7.004,-0.05
7.006,-0.05
7.008,-0.045
7.01,-0.04
7.012,-0.035
7.014,-0.03
7.016,-0.03
7.018,-0.03
7.02,-0.035
7.022,-0.035
7.024,-0.035
7.026,-0.03
7.028,-0.02
7.03,-0.01
7.032,0
7.034,0.01
7.036,0.015
7.038,0.015
7.04,0.015
7.042,0.01
7.044,0
7.046,-0.005
7.048,-0.015
7.05,-0.02
7.052,-0.02
7.054,-0.02
7.056,-0.02
7.058,-0.015
7.06,-0.01
7.062,-0.005
7.064,0
7.066,0.005
7.068,0.005
7.07,0.01
7.072,0.015
7.074,0.02
7.076,0.03
7.078,0.04
7.08,0.055
7.082,0.065
7.084,0.08
7.086,0.095
7.088,0.1
7.09,0.105
7.092,0.105
7.094,0.105
7.096,0.1
7.098,0.095
7.1,0.095
7.102,0.1
7.104,0.105
7.106,0.12
7.108,0.135
7.11,0.15
7.112,0.165
7.114,0.175
7.116,0.185
7.118,0.19
7.12,0.19
7.122,0.19
7.124,0.19
7.126,0.195
7.128,0.195
7.13,0.195
7.132,0.2
7.134,0.195
7.136,0.195
7.138,0.19
7.14,0.185
7.142,0.175
7.144,0.17
7.146,0.165
7.148,0.16
7.15,0.16
7.152,0.155
7.154,0.15
7.156,0.145
7.158,0.14
7.16,0.13
7.162,0.115
7.164,0.1
7.166,0.085
7.168,0.07
7.17,0.055
7.172,0.045
7.174,0.04
7.176,0.035
7.178,0.03
7.18,0.025
7.182,0.025
7.184,0.02
7.186,0.015
7.188,0.01
7.19,0
7.192,-0.005
7.194,-0.01
7.196,-0.015
7.198,-0.02
7.2,-0.025
7.202,-0.025
7.204,-0.03
7.206,-0.03
7.208,-0.03
7.21,-0.03
7.212,-0.035
7.214,-0.04
7.216,-0.045
7.218,-0.045
7.22,-0.045
7.222,-0.045
7.224,-0.04
7.226,-0.035
7.228,-0.025
7.23,-0.02
7.232,-0.02
7.234,-0.025
7.236,-0.04
7.238,-0.055
7.24,-0.07
7.242,-0.085
7.244,-0.095
7.246,-0.1
7.248,-0.095
7.25,-0.08
7.252,-0.065
7.254,-0.045
7.256,-0.03
7.258,-0.02
7.26,-0.015
7.262,-0.02
7.264,-0.03
7.266,-0.045
7.268,-0.06
7.27,-0.07
7.272,-0.08
7.274,-0.08
7.276,-0.075
7.278,-0.07
7.28,-0.06
7.282,-0.055
7.284,-0.05
7.286,-0.045
7.288,-0.04
7.29,-0.04
7.292,-0.035
7.294,-0.03
7.296,-0.025
7.298,-0.025
7.3,-0.02
7.302,-0.025
7.304,-0.03
7.306,-0.04
7.308,-0.05
7.31,-0.06
7.312,-0.065
7.314,-0.065
7.316,-0.06
7.318,-0.055
7.32,-0.045
7.322,-0.04
7.324,-0.04
7.326,-0.045
7.328,-0.045
7.33,-0.05
7.332,-0.055
7.334,-0.055
7.336,-0.045
7.338,-0.035
7.34,-0.02
7.342,-0.01
7.344,-0.005
7.346,-0.005
7.348,-0.015
7.35,-0.03
7.352,-0.045
7.354,-0.06
7.356,-0.07
7.358,-0.075
7.36,-0.07
7.362,-0.065
7.364,-0.05
7.366,-0.04
7.368,-0.03
7.37,-0.025
7.372,-0.03
7.374,-0.035
7.376,-0.035
7.378,-0.04
7.38,-0.04
7.382,-0.035
7.384,-0.03
7.386,-0.025
7.388,-0.02
7.39,-0.02
7.392,-0.025
7.394,-0.025
7.396,-0.03
7.398,-0.035
7.4,-0.035
7.402,-0.035
7.404,-0.035
7.406,-0.035
7.408,-0.04
7.41,-0.045
7.412,-0.055
7.414,-0.07
7.416,-0.08
7.418,-0.085
7.42,-0.085
7.422,-0.075
7.424,-0.065
7.426,-0.05
7.428,-0.035
7.43,-0.025
7.432,-0.025
7.434,-0.025
7.436,-0.035
7.438,-0.05
7.44,-0.06
7.442,-0.07
7.444,-0.07
7.446,-0.07
7.448,-0.065
7.45,-0.06
7.452,-0.055
7.454,-0.055
7.456,-0.055
7.458,-0.06
7.46,-0.065
7.462,-0.07
7.464,-0.07
7.466,-0.065
7.468,-0.06
7.47,-0.05
7.472,-0.045
7.474,-0.04
7.476,-0.04
7.478,-0.045
7.48,-0.055
7.482,-0.065
7.484,-0.075
7.486,-0.085
7.488,-0.09
7.49,-0.09
7.492,-0.085
7.494,-0.08
7.496,-0.07
7.498,-0.06
7.5,-0.05
7.502,-0.045
7.504,-0.045
7.506,-0.045
7.508,-0.045
7.51,-0.05
7.512,-0.055
7.514,-0.055
7.516,-0.06
7.518,-0.055
7.52,-0.055
7.522,-0.05
7.524,-0.045
7.526,-0.04
7.528,-0.035
7.53,-0.035
7.532,-0.035
7.534,-0.035
7.536,-0.035
7.538,-0.04
7.54,-0.045
7.542,-0.045
7.544,-0.045
7.546,-0.04
7.548,-0.03
7.55,-0.02
7.552,-0.005
7.554,0.01
7.556,0.02
7.558,0.03
7.56,0.035
7.562,0.03
7.564,0.025
7.566,0.01
7.568,-0.01
7.57,-0.03
7.572,-0.05
7.574,-0.065
7.576,-0.08
7.578,-0.08
7.58,-0.08
7.582,-0.075
7.584,-0.065
7.586,-0.06
7.588,-0.055
7.59,-0.055
7.592,-0.06
7.594,-0.065
7.596,-0.075
7.598,-0.085
7.6,-0.09
7.602,-0.09
7.604,-0.085
7.606,-0.08
7.608,-0.07
7.61,-0.07
7.612,-0.07
7.614,-0.075
7.616,-0.085
7.618,-0.1
7.62,-0.11
7.622,-0.11
7.624,-0.095
7.626,-0.065
7.628,-0.015
7.63,0.055
7.632,0.135
7.634,0.22
7.636,0.31
7.638,0.4
7.64,0.475
7.642,0.54
7.644,0.59
7.646,0.615
7.648,0.625
7.65,0.61
7.652,0.575
7.654,0.515
7.656,0.43
7.658,0.335
7.66,0.225
7.662,0.12
7.664,0.02
7.666,-0.065
7.668,-0.125
7.67,-0.16
7.672,-0.17
7.674,-0.16
7.676,-0.135
7.678,-0.105
7.68,-0.075
7.682,-0.055
7.684,-0.04
7.686,-0.035
7.688,-0.035
7.69,-0.04
7.692,-0.05
7.694,-0.055
7.696,-0.06
7.698,-0.065
7.7,-0.07
7.702,-0.075
7.704,-0.08
7.706,-0.09
7.708,-0.095
7.71,-0.1
7.712,-0.1
7.714,-0.095
7.716,-0.09
7.718,-0.08
7.72,-0.07
7.722,-0.06
7.724,-0.06
7.726,-0.06
7.728,-0.065
7.73,-0.075
7.732,-0.085
7.734,-0.09
7.736,-0.09
7.738,-0.08
7.74,-0.07
7.742,-0.055
7.744,-0.04
7.746,-0.035
7.748,-0.03
7.75,-0.035
7.752,-0.045
7.754,-0.055
7.756,-0.065
7.758,-0.07
7.76,-0.07
7.762,-0.065
7.764,-0.05
7.766,-0.04
7.768,-0.03
7.77,-0.02
7.772,-0.02
7.774,-0.025
7.776,-0.03
7.778,-0.04
7.78,-0.045
7.782,-0.045
7.784,-0.045
7.786,-0.035
7.788,-0.025
7.79,-0.02
7.792,-0.01
7.794,-0.005
7.796,-0.005
7.798,-0.005
7.8,-0.005
7.802,-0.01
7.804,-0.01
7.806,-0.01
7.808,-0.005
7.81,0
7.812,0.005
7.814,0.015
7.816,0.02
7.818,0.025
7.82,0.03
7.822,0.035
7.824,0.045
7.826,0.05
7.828,0.06
7.83,0.07
7.832,0.08
7.834,0.09
7.836,0.1
7.838,0.11
7.84,0.12
7.842,0.13
7.844,0.135
7.846,0.145
7.848,0.15
7.85,0.155
7.852,0.16
7.854,0.165
7.856,0.17
7.858,0.175
7.86,0.18
7.862,0.185
7.864,0.19
7.866,0.19
7.868,0.19
7.87,0.19
7.872,0.185
7.874,0.18
7.876,0.17
7.878,0.165
7.88,0.155
7.882,0.15
7.884,0.145
7.886,0.14
7.888,0.135
7.89,0.135
7.892,0.13
7.894,0.12
7.896,0.11
7.898,0.1
7.9,0.085
7.902,0.07
7.904,0.055
7.906,0.04
7.908,0.025
7.91,0.015
7.912,0.005
7.914,0
7.916,-0.01
7.918,-0.015
7.92,-0.015
7.922,-0.02
7.924,-0.02
7.926,-0.02
7.928,-0.02
7.93,-0.02
7.932,-0.025
7.934,-0.025
7.936,-0.03
7.938,-0.04
7.94,-0.05
7.942,-0.06
7.944,-0.07
7.946,-0.075
7.948,-0.08
7.95,-0.085
7.952,-0.08
7.954,-0.08
7.956,-0.075
7.958,-0.07
7.96,-0.065
7.962,-0.065
7.964,-0.065
7.966,-0.07
7.968,-0.08
7.97,-0.085
7.972,-0.095
7.974,-0.1
7.976,-0.1
7.978,-0.1
7.98,-0.095
7.982,-0.09
7.984,-0.085
7.986,-0.08
7.988,-0.075
7.99,-0.07
7.992,-0.07
7.994,-0.065
7.996,-0.065
7.998,-0.06
8,-0.06
8.002,-0.055
8.004,-0.055
8.006,-0.055
8.008,-0.06
8.01,-0.065
8.012,-0.075
8.014,-0.08
8.016,-0.085
8.018,-0.085
8.02,-0.08
8.022,-0.07
8.024,-0.055
8.026,-0.04
8.028,-0.03
8.03,-0.025
8.032,-0.02
8.034,-0.03
8.036,-0.04
8.038,-0.055
8.04,-0.07
8.042,-0.08
8.044,-0.08
8.046,-0.08
8.048,-0.07
8.05,-0.06
8.052,-0.055
8.054,-0.045
8.056,-0.045
8.058,-0.045
8.06,-0.045
8.062,-0.05
8.064,-0.05
8.066,-0.045
8.068,-0.04
8.07,-0.03
8.072,-0.015
8.074,-0.01
8.076,-0.005
8.078,-0.01
8.08,-0.015
8.082,-0.03
8.084,-0.04
8.086,-0.05
8.088,-0.05
8.09,-0.05
8.092,-0.04
8.094,-0.025
8.096,-0.015
8.098,-0.01
8.1,-0.01
8.102,-0.02
8.104,-0.03
8.106,-0.045
8.108,-0.06
8.11,-0.065
8.112,-0.065
8.114,-0.06
8.116,-0.045
8.118,-0.035
8.12,-0.025
8.122,-0.02
8.124,-0.025
8.126,-0.03
8.128,-0.04
8.13,-0.05
8.132,-0.06
8.134,-0.06
8.136,-0.055
8.138,-0.05
8.14,-0.045
8.142,-0.035
8.144,-0.035
8.146,-0.035
8.148,-0.04
8.15,-0.05
8.152,-0.055
8.154,-0.06
8.156,-0.06
8.158,-0.055
8.16,-0.045
8.162,-0.035
8.164,-0.03
8.166,-0.02
8.168,-0.02
8.17,-0.02
8.172,-0.02
8.174,-0.025
8.176,-0.03
8.178,-0.03
8.18,-0.03
8.182,-0.03
8.184,-0.035
8.186,-0.035
8.188,-0.035
8.19,-0.04
8.192,-0.05
8.194,-0.055
8.196,-0.055
8.198,-0.06
8.2,-0.055
8.202,-0.05
8.204,-0.045
8.206,-0.035
8.208,-0.03
8.21,-0.025
8.212,-0.02
8.214,-0.02
8.216,-0.02
8.218,-0.02
8.22,-0.02
8.222,-0.015
8.224,-0.01
8.226,-0.005
8.228,0
8.23,0.01
8.232,0.02
8.234,0.025
8.236,0.03
8.238,0.035
8.24,0.03
8.242,0.025
8.244,0.02
8.246,0.01
8.248,-0.005
8.25,-0.015
8.252,-0.025
8.254,-0.035
8.256,-0.04
8.258,-0.04
8.26,-0.04
8.262,-0.04
8.264,-0.035
8.266,-0.035
8.268,-0.035
8.27,-0.035
8.272,-0.04
8.274,-0.04
8.276,-0.04
8.278,-0.04
8.28,-0.04
8.282,-0.035
8.284,-0.035
8.286,-0.035
8.288,-0.04
8.29,-0.05
8.292,-0.065
8.294,-0.08
8.296,-0.1
8.298,-0.11
8.3,-0.115
8.302,-0.1
8.304,-0.07
8.306,-0.02
8.308,0.05
8.31,0.135
8.312,0.225
8.314,0.325
8.316,0.415
8.318,0.5
8.32,0.565
8.322,0.615
8.324,0.635
8.326,0.635
8.328,0.605
8.33,0.555
8.332,0.48
8.334,0.39
8.336,0.29
8.338,0.185
8.34,0.085
8.342,0
8.344,-0.065
8.346,-0.11
8.348,-0.135
8.35,-0.135
8.352,-0.12
8.354,-0.1
8.356,-0.08
8.358,-0.06
8.36,-0.05
8.362,-0.055
8.364,-0.065
8.366,-0.075
8.368,-0.09
8.37,-0.095
8.372,-0.1
8.374,-0.09
8.376,-0.08
8.378,-0.06
8.38,-0.045
8.382,-0.035
8.384,-0.03
8.386,-0.035
8.388,-0.045
8.39,-0.055
8.392,-0.07
8.394,-0.08
8.396,-0.09
8.398,-0.09
8.4,-0.085
8.402,-0.075
8.404,-0.06
8.406,-0.05
8.408,-0.04
8.41,-0.035
8.412,-0.03
8.414,-0.025
8.416,-0.025
8.418,-0.025
8.42,-0.025
8.422,-0.03
8.424,-0.03
8.426,-0.03
8.428,-0.03
8.43,-0.03
8.432,-0.03
8.434,-0.025
8.436,-0.02
8.438,-0.015
8.44,-0.01
8.442,-0.01
8.444,-0.01
8.446,-0.01
8.448,-0.015
8.45,-0.02
8.452,-0.025
8.454,-0.025
8.456,-0.025
8.458,-0.025
8.46,-0.025
8.462,-0.025
8.464,-0.02
8.466,-0.02
8.468,-0.02
8.47,-0.02
8.472,-0.015
8.474,-0.005
8.476,0.005
8.478,0.015
8.48,0.03
8.482,0.04
8.484,0.045
8.486,0.05
8.488,0.05
8.49,0.05
8.492,0.045
8.494,0.04
8.496,0.04
8.498,0.045
8.5,0.055
8.502,0.065
8.504,0.08
8.506,0.095
8.508,0.11
8.51,0.12
8.512,0.135
8.514,0.145
8.516,0.155
8.518,0.165
8.52,0.175
8.522,0.175
8.524,0.18
8.526,0.175
8.528,0.175
8.53,0.17
8.532,0.17
8.534,0.17
8.536,0.175
8.538,0.185
8.54,0.2
8.542,0.21
8.544,0.22
8.546,0.225
8.548,0.225
8.55,0.22
8.552,0.21
8.554,0.195
8.556,0.185
8.558,0.175
8.56,0.17
8.562,0.17
8.564,0.17
8.566,0.165
8.568,0.16
8.57,0.155
8.572,0.145
8.574,0.13
8.576,0.115
8.578,0.1
8.58,0.09
8.582,0.075
8.584,0.07
8.586,0.06
8.588,0.05
8.59,0.04
8.592,0.025
8.594,0.01
8.596,-0.005
8.598,-0.025
8.6,-0.04
8.602,-0.05
8.604,-0.055
8.606,-0.06
8.608,-0.055
8.61,-0.05
8.612,-0.04
8.614,-0.035
8.616,-0.03
8.618,-0.025
8.62,-0.03
8.622,-0.035
8.624,-0.04
8.626,-0.045
8.628,-0.05
8.63,-0.055
8.632,-0.055
8.634,-0.055
8.636,-0.055
8.638,-0.06
8.64,-0.06
8.642,-0.065
8.644,-0.07
8.646,-0.075
8.648,-0.08
8.65,-0.08
8.652,-0.08
8.654,-0.075
8.656,-0.075
8.658,-0.07
8.66,-0.07
8.662,-0.07
8.664,-0.08
8.666,-0.085
8.668,-0.095
8.67,-0.1
8.672,-0.105
8.674,-0.105
8.676,-0.095
8.678,-0.085
8.68,-0.075
8.682,-0.065
8.684,-0.055
8.686,-0.05
8.688,-0.055
8.69,-0.055
8.692,-0.065
8.694,-0.07
8.696,-0.07
8.698,-0.07
8.7,-0.065
8.702,-0.055
8.704,-0.04
8.706,-0.03
8.708,-0.02
8.71,-0.015
8.712,-0.01
8.714,-0.015
8.716,-0.025
8.718,-0.035
8.72,-0.05
8.722,-0.06
8.724,-0.065
8.726,-0.07
8.728,-0.07
8.73,-0.07
8.732,-0.07
8.734,-0.07
8.736,-0.065
8.738,-0.065
8.74,-0.065
8.742,-0.065
8.744,-0.065
8.746,-0.06
8.748,-0.055
8.75,-0.05
8.752,-0.045
8.754,-0.04
8.756,-0.035
8.758,-0.035
8.76,-0.04
8.762,-0.045
8.764,-0.055
8.766,-0.065
8.768,-0.07
8.77,-0.07
8.772,-0.07
8.774,-0.06
8.776,-0.05
8.778,-0.035
8.78,-0.02
8.782,-0.01
8.784,-0.005
8.786,-0.005
8.788,-0.01
8.79,-0.02
8.792,-0.035
8.794,-0.05
8.796,-0.06
8.798,-0.075
8.8,-0.08
8.802,-0.085
8.804,-0.09
8.806,-0.085
8.808,-0.08
8.81,-0.075
8.812,-0.07
8.814,-0.06
8.816,-0.055
8.818,-0.055
8.82,-0.055
8.822,-0.06
8.824,-0.065
8.826,-0.07
8.828,-0.08
8.83,-0.085
8.832,-0.085
8.834,-0.08
8.836,-0.075
8.838,-0.065
8.84,-0.055
8.842,-0.045
8.844,-0.04
8.846,-0.035
8.848,-0.04
8.85,-0.045
8.852,-0.055
8.854,-0.065
8.856,-0.075
8.858,-0.08
8.86,-0.085
8.862,-0.08
8.864,-0.08
8.866,-0.07
8.868,-0.065
8.87,-0.06
8.872,-0.06
8.874,-0.055
8.876,-0.06
8.878,-0.06
8.88,-0.065
8.882,-0.065
8.884,-0.065
8.886,-0.07
8.888,-0.07
8.89,-0.07
8.892,-0.075
8.894,-0.075
8.896,-0.08
8.898,-0.085
8.9,-0.085
8.902,-0.085
8.904,-0.08
8.906,-0.075
8.908,-0.065
8.91,-0.055
8.912,-0.05
8.914,-0.045
8.916,-0.045
8.918,-0.045
8.92,-0.05
8.922,-0.055
8.924,-0.06
8.926,-0.06
8.928,-0.06
8.93,-0.06
8.932,-0.055
8.934,-0.055
8.936,-0.05
8.938,-0.045
8.94,-0.04
8.942,-0.04
8.944,-0.035
8.946,-0.03
8.948,-0.02
8.95,-0.01
8.952,0
8.954,0.005
8.956,0.015
8.958,0.015
8.96,0.01
8.962,0
8.964,-0.015
8.966,-0.03
8.968,-0.045
8.97,-0.06
8.972,-0.07
8.974,-0.07
8.976,-0.07
8.978,-0.065
8.98,-0.055
8.982,-0.045
8.984,-0.04
8.986,-0.04
8.988,-0.045
8.99,-0.055
8.992,-0.07
8.994,-0.08
8.996,-0.085
8.998,-0.09
9,-0.085
9.002,-0.07
9.004,-0.06
9.006,-0.05
9.008,-0.045
9.01,-0.055
9.012,-0.07
9.014,-0.09
9.016,-0.115
9.018,-0.13
9.02,-0.135
9.022,-0.115
9.024,-0.07
9.026,0
9.028,0.09
9.03,0.19
9.032,0.295
9.034,0.39
9.036,0.48
9.038,0.55
9.04,0.6
9.042,0.63
9.044,0.64
9.046,0.635
9.048,0.61
9.05,0.57
9.052,0.505
9.054,0.425
9.056,0.335
9.058,0.235
9.06,0.135
9.062,0.045
9.064,-0.03
9.066,-0.085
9.068,-0.115
9.07,-0.125
9.072,-0.115
9.074,-0.1
9.076,-0.085
9.078,-0.07
9.08,-0.065
9.082,-0.065
9.084,-0.075
9.086,-0.08
9.088,-0.09
9.09,-0.095
9.092,-0.09
9.094,-0.085
9.096,-0.075
9.098,-0.065
9.1,-0.06
9.102,-0.06
9.104,-0.06
9.106,-0.07
9.108,-0.075
9.11,-0.08
9.112,-0.085
9.114,-0.085
9.116,-0.08
9.118,-0.075
9.12,-0.07
9.122,-0.06
9.124,-0.055
9.126,-0.05
9.128,-0.045
9.13,-0.04
9.132,-0.035
9.134,-0.03
9.136,-0.025
9.138,-0.02
9.14,-0.02
9.142,-0.025
9.144,-0.03
9.146,-0.04
9.148,-0.05
9.15,-0.06
9.152,-0.065
9.154,-0.07
9.156,-0.065
9.158,-0.06
9.16,-0.05
9.162,-0.04
9.164,-0.03
9.166,-0.025
9.168,-0.02
9.17,-0.02
9.172,-0.025
9.174,-0.035
9.176,-0.04
9.178,-0.045
9.18,-0.05
9.182,-0.05
9.184,-0.045
9.186,-0.04
9.188,-0.035
9.19,-0.025
9.192,-0.02
9.194,-0.015
9.196,-0.01
9.198,-0.005
9.2,0
9.202,0.005
9.204,0.01
9.206,0.02
9.208,0.025
9.21,0.03
9.212,0.035
9.214,0.04
9.216,0.04
9.218,0.04
9.22,0.04
9.222,0.045
9.224,0.05
9.226,0.06
9.228,0.07
9.23,0.085
9.232,0.095
9.234,0.105
9.236,0.115
9.238,0.115
9.24,0.115
9.242,0.11
9.244,0.11
9.246,0.105
9.248,0.11
9.25,0.115
9.252,0.125
9.254,0.14
9.256,0.15
9.258,0.16
9.26,0.17
9.262,0.175
9.264,0.18
9.266,0.175
9.268,0.175
9.27,0.17
9.272,0.165
9.274,0.165
9.276,0.16
9.278,0.16
9.28,0.16
9.282,0.16
9.284,0.16
9.286,0.155
9.288,0.145
9.29,0.135
9.292,0.125
9.294,0.11
9.296,0.095
9.298,0.08
9.3,0.07
9.302,0.055
9.304,0.045
9.306,0.035
9.308,0.025
9.31,0.01
9.312,0
9.314,-0.01
9.316,-0.025
9.318,-0.03
9.32,-0.04
9.322,-0.04
9.324,-0.04
9.326,-0.035
9.328,-0.03
9.33,-0.025
9.332,-0.02
9.334,-0.02
9.336,-0.025
9.338,-0.03
9.34,-0.04
9.342,-0.045
9.344,-0.05
9.346,-0.05
9.348,-0.05
9.35,-0.05
9.352,-0.05
9.354,-0.045
9.356,-0.045
9.358,-0.05
9.36,-0.055
9.362,-0.055
9.364,-0.06
9.366,-0.065
9.368,-0.07
9.37,-0.07
9.372,-0.075
9.374,-0.075
9.376,-0.075
9.378,-0.075
9.38,-0.075
9.382,-0.07
9.384,-0.065
9.386,-0.065
9.388,-0.06
9.39,-0.06
9.392,-0.065
9.394,-0.07
9.396,-0.075
9.398,-0.08
9.4,-0.085
9.402,-0.085
9.404,-0.085
9.406,-0.075
9.408,-0.065
9.41,-0.055
9.412,-0.04
9.414,-0.03
9.416,-0.02
9.418,-0.02
9.42,-0.02
9.422,-0.03
9.424,-0.035
9.426,-0.045
9.428,-0.055
9.43,-0.055
9.432,-0.055
9.434,-0.05
9.436,-0.04
9.438,-0.035
9.44,-0.025
9.442,-0.02
9.444,-0.02
9.446,-0.025
9.448,-0.03
9.45,-0.045
9.452,-0.06
9.454,-0.075
9.456,-0.09
9.458,-0.095
9.46,-0.1
9.462,-0.095
9.464,-0.085
9.466,-0.07
9.468,-0.055
9.47,-0.045
9.472,-0.035
9.474,-0.035
9.476,-0.035
9.478,-0.04
9.48,-0.045
9.482,-0.05
9.484,-0.05
9.486,-0.045
9.488,-0.04
9.49,-0.03
9.492,-0.025
9.494,-0.02
9.496,-0.015
9.498,-0.02
9.5,-0.025
9.502,-0.035
9.504,-0.045
9.506,-0.05
9.508,-0.05
9.51,-0.045
9.512,-0.045
9.514,-0.04
9.516,-0.04
9.518,-0.04
9.52,-0.045
9.522,-0.055
9.524,-0.065
9.526,-0.07
9.528,-0.07
9.53,-0.07
9.532,-0.06
9.534,-0.055
9.536,-0.045
9.538,-0.04
9.54,-0.035
9.542,-0.04
9.544,-0.045
9.546,-0.055
9.548,-0.06
9.55,-0.065
9.552,-0.07
9.554,-0.065
9.556,-0.06
9.558,-0.055
9.56,-0.05
9.562,-0.05
9.564,-0.05
9.566,-0.05
9.568,-0.05
9.57,-0.05
9.572,-0.05
9.574,-0.045
9.576,-0.045
9.578,-0.04
9.58,-0.035
9.582,-0.035
9.584,-0.04
9.586,-0.045
9.588,-0.055
9.59,-0.06
9.592,-0.065
9.594,-0.065
9.596,-0.06
9.598,-0.05
9.6,-0.045
9.602,-0.035
9.604,-0.025
9.606,-0.02
9.608,-0.02
9.61,-0.025
9.612,-0.03
9.614,-0.04
9.616,-0.05
9.618,-0.055
9.62,-0.06
9.622,-0.065
9.624,-0.06
9.626,-0.06
9.628,-0.06
9.63,-0.055
9.632,-0.055
9.634,-0.05
9.636,-0.05
9.638,-0.05
9.64,-0.05
9.642,-0.055
9.644,-0.055
9.646,-0.055
9.648,-0.055
9.65,-0.055
9.652,-0.055
9.654,-0.055
9.656,-0.055
9.658,-0.055
9.66,-0.055
9.662,-0.05
9.664,-0.05
9.666,-0.045
9.668,-0.04
9.67,-0.035
9.672,-0.025
9.674,-0.02
9.676,-0.015
9.678,-0.015
9.68,-0.015
9.682,-0.02
9.684,-0.025
9.686,-0.03
9.688,-0.03
9.69,-0.025
9.692,-0.015
9.694,-0.005
9.696,0.01
9.698,0.025
9.7,0.035
9.702,0.04
9.704,0.04
9.706,0.03
9.708,0.015
9.71,0
9.712,-0.02
9.714,-0.04
9.716,-0.05
9.718,-0.06
9.72,-0.06
9.722,-0.06
9.724,-0.05
9.726,-0.045
9.728,-0.04
9.73,-0.04
9.732,-0.04
9.734,-0.04
9.736,-0.04
9.738,-0.04
9.74,-0.04
9.742,-0.035
9.744,-0.03
9.746,-0.025
9.748,-0.025
9.75,-0.035
9.752,-0.045
9.754,-0.06
9.756,-0.08
9.758,-0.09
9.76,-0.095
9.762,-0.085
9.764,-0.055
9.766,0
9.768,0.075
9.77,0.165
9.772,0.265
9.774,0.37
9.776,0.465
9.778,0.555
9.78,0.62
9.782,0.67
9.784,0.69
9.786,0.69
9.788,0.665
9.79,0.62
9.792,0.555
9.794,0.47
9.796,0.375
9.798,0.275
9.8,0.17
9.802,0.08
9.804,0
9.806,-0.06
9.808,-0.095
9.81,-0.11
9.812,-0.105
9.814,-0.09
9.816,-0.065
9.818,-0.04
9.82,-0.02
9.822,-0.01
9.824,-0.005
9.826,-0.01
9.828,-0.025
9.83,-0.04
9.832,-0.055
9.834,-0.065
9.836,-0.07
9.838,-0.075
9.84,-0.075
9.842,-0.07
9.844,-0.06
9.846,-0.055
9.848,-0.045
9.85,-0.04
9.852,-0.035
9.854,-0.03
9.856,-0.03
9.858,-0.03
9.86,-0.03
9.862,-0.03
9.864,-0.03
9.866,-0.03
9.868,-0.03
9.87,-0.03
9.872,-0.03
9.874,-0.03
9.876,-0.025
9.878,-0.025
9.88,-0.02
9.882,-0.02
9.884,-0.02
9.886,-0.02
9.888,-0.02
9.89,-0.02
9.892,-0.02
9.894,-0.025
9.896,-0.025
9.898,-0.03
9.9,-0.03
9.902,-0.035
9.904,-0.035
9.906,-0.035
9.908,-0.03
9.91,-0.03
9.912,-0.025
9.914,-0.025
9.916,-0.025
9.918,-0.025
9.92,-0.025
9.922,-0.025
9.924,-0.025
9.926,-0.02
9.928,-0.01
9.93,0
9.932,0.01
9.934,0.025
9.936,0.03
9.938,0.035
9.94,0.035
9.942,0.03
9.944,0.025
9.946,0.02
9.948,0.02
9.95,0.02
9.952,0.03
9.954,0.04
9.956,0.055
9.958,0.065
9.96,0.08
9.962,0.085
9.964,0.085
9.966,0.085
9.968,0.08
9.97,0.08
9.972,0.08
9.974,0.085
9.976,0.095
9.978,0.11
9.98,0.13
9.982,0.15
9.984,0.165
9.986,0.18
9.988,0.19
9.99,0.19
9.992,0.19
9.994,0.19
9.996,0.185
9.998,0.18
