0,-0.15
0.002,-0.095
0.004,-0.06
0.006,-0.025
0.008,-0.01
0.01,-0.005
0.012,-0.015
0.014,-0.03
0.016,-0.05
0.018,-0.06
0.02,-0.07
0.022,-0.07
0.024,-0.065
0.026,-0.06
0.028,-0.05
0.03,-0.045
0.032,-0.045
0.034,-0.045
0.036,-0.05
0.038,-0.055
0.04,-0.06
0.042,-0.06
0.044,-0.055
0.046,-0.05
0.048,-0.04
0.05,-0.03
0.052,-0.025
0.054,-0.02
0.056,-0.02
0.058,-0.025
0.06,-0.03
0.062,-0.04
0.064,-0.045
0.066,-0.05
0.068,-0.055
0.07,-0.055
0.072,-0.05
0.074,-0.045
0.076,-0.04
0.078,-0.03
0.08,-0.03
0.082,-0.03
0.084,-0.03
0.086,-0.035
0.088,-0.045
0.09,-0.05
0.092,-0.05
0.094,-0.05
0.096,-0.04
0.098,-0.03
0.1,-0.02
0.102,-0.01
0.104,0
0.106,0.005
0.108,0.01
0.11,0.005
0.112,0
0.114,-0.01
0.116,-0.015
0.118,-0.025
0.12,-0.03
0.122,-0.035
0.124,-0.035
0.126,-0.04
0.128,-0.04
0.13,-0.04
0.132,-0.045
0.134,-0.05
0.136,-0.055
0.138,-0.06
0.14,-0.065
0.142,-0.065
0.144,-0.065
0.146,-0.065
0.148,-0.06
0.15,-0.06
0.152,-0.06
0.154,-0.06
0.156,-0.06
0.158,-0.06
0.16,-0.055
0.162,-0.05
0.164,-0.04
0.166,-0.03
0.168,-0.02
0.17,-0.015
0.172,-0.015
0.174,-0.015
0.176,-0.02
0.178,-0.03
0.18,-0.035
0.182,-0.04
0.184,-0.04
0.186,-0.04
0.188,-0.035
0.19,-0.03
0.192,-0.025
0.194,-0.02
0.196,-0.02
0.198,-0.025
0.2,-0.03
0.202,-0.04
0.204,-0.045
0.206,-0.05
0.208,-0.055
0.21,-0.055
0.212,-0.05
0.214,-0.045
0.216,-0.04
0.218,-0.035
0.22,-0.03
0.222,-0.025
0.224,-0.025
0.226,-0.02
0.228,-0.02
0.23,-0.015
0.232,-0.01
0.234,0
0.236,0.01
0.238,0.02
0.24,0.03
0.242,0.035
0.244,0.035
0.246,0.03
0.248,0.02
0.25,0.01
0.252,0
0.254,-0.01
0.256,-0.02
0.258,-0.025
0.26,-0.025
0.262,-0.025
0.264,-0.025
0.266,-0.02
0.268,-0.02
0.27,-0.015
0.272,-0.015
0.274,-0.02
0.276,-0.02
0.278,-0.02
0.28,-0.025
0.282,-0.025
0.284,-0.025
0.286,-0.025
0.288,-0.03
0.29,-0.03
0.292,-0.035
0.294,-0.04
0.296,-0.045
0.298,-0.05
0.3,-0.05
0.302,-0.05
0.304,-0.05
0.306,-0.045
0.308,-0.045
0.31,-0.045
0.312,-0.045
0.314,-0.045
0.316,-0.055
0.318,-0.06
0.32,-0.065
0.322,-0.065
0.324,-0.07
0.326,-0.07
0.328,-0.07
0.33,-0.075
0.332,-0.085
0.334,-0.1
0.336,-0.12
0.338,-0.145
0.34,-0.165
0.342,-0.175
0.344,-0.17
0.346,-0.14
0.348,-0.085
0.35,-0.005
0.352,0.105
0.354,0.23
0.356,0.375
0.358,0.525
0.36,0.675
0.362,0.815
0.364,0.95
0.366,1.065
0.368,1.16
0.37,1.225
0.372,1.255
0.374,1.25
0.376,1.195
0.378,1.1
0.38,0.965
0.382,0.8
0.384,0.625
0.386,0.45
0.388,0.295
0.39,0.165
0.392,0.075
0.394,0.025
0.396,0.005
0.398,0.005
0.4,0.02
0.402,0.03
0.404,0.035
0.406,0.025
0.408,0.005
0.41,-0.02
0.412,-0.045
0.414,-0.065
0.416,-0.075
0.418,-0.08
0.42,-0.075
0.422,-0.065
0.424,-0.055
0.426,-0.05
0.428,-0.05
0.43,-0.055
0.432,-0.06
0.434,-0.07
0.436,-0.075
0.438,-0.075
0.44,-0.075
0.442,-0.07
0.444,-0.06
0.446,-0.05
0.448,-0.045
0.45,-0.045
0.452,-0.05
0.454,-0.055
0.456,-0.065
0.458,-0.075
0.46,-0.085
0.462,-0.095
0.464,-0.1
0.466,-0.105
0.468,-0.105
0.47,-0.1
0.472,-0.095
0.474,-0.085
0.476,-0.08
0.478,-0.07
0.48,-0.065
0.482,-0.06
0.484,-0.06
0.486,-0.065
0.488,-0.07
0.49,-0.075
0.492,-0.08
0.494,-0.08
0.496,-0.08
0.498,-0.08
0.5,-0.07
0.502,-0.065
0.504,-0.06
0.506,-0.055
0.508,-0.055
0.51,-0.055
0.512,-0.06
0.514,-0.065
0.516,-0.065
0.518,-0.07
0.52,-0.065
0.522,-0.06
0.524,-0.055
0.526,-0.04
0.528,-0.03
0.53,-0.015
0.532,-0.005
0.534,0
0.536,0
0.538,-0.005
0.54,-0.01
0.542,-0.02
0.544,-0.03
0.546,-0.04
0.548,-0.045
0.55,-0.045
0.552,-0.035
0.554,-0.02
0.556,0
0.558,0.02
0.56,0.035
0.562,0.045
0.564,0.05
0.566,0.05
0.568,0.04
0.57,0.025
0.572,0.015
0.574,0
0.576,-0.005
0.578,-0.005
0.58,0.005
0.582,0.015
0.584,0.035
0.586,0.05
0.588,0.065
0.59,0.08
0.592,0.085
0.594,0.09
0.596,0.085
0.598,0.085
0.6,0.08
0.602,0.08
0.604,0.08
0.606,0.08
0.608,0.09
0.61,0.095
0.612,0.1
0.614,0.1
0.616,0.1
0.618,0.095
0.62,0.09
0.622,0.08
0.624,0.075
0.626,0.065
0.628,0.06
0.63,0.055
0.632,0.05
0.634,0.05
0.636,0.045
0.638,0.045
0.64,0.045
0.642,0.045
0.644,0.045
0.646,0.04
0.648,0.04
0.65,0.04
0.652,0.035
0.654,0.03
0.656,0.025
0.658,0.015
0.66,0
0.662,-0.015
0.664,-0.03
0.666,-0.045
0.668,-0.055
0.67,-0.06
0.672,-0.055
0.674,-0.05
0.676,-0.04
0.678,-0.03
0.68,-0.02
0.682,-0.015
0.684,-0.015
0.686,-0.02
0.688,-0.03
0.69,-0.035
0.692,-0.045
0.694,-0.055
0.696,-0.06
0.698,-0.065
0.7,-0.065
0.702,-0.06
0.704,-0.06
0.706,-0.055
0.708,-0.055
0.71,-0.06
0.712,-0.06
0.714,-0.065
0.716,-0.065
0.718,-0.065
0.72,-0.06
0.722,-0.06
0.724,-0.05
0.726,-0.045
0.728,-0.035
0.73,-0.03
0.732,-0.025
0.734,-0.02
0.736,-0.02
0.738,-0.02
0.74,-0.025
0.742,-0.035
0.744,-0.04
0.746,-0.05
0.748,-0.055
0.75,-0.06
0.752,-0.065
0.754,-0.065
0.756,-0.065
0.758,-0.06
0.76,-0.055
0.762,-0.05
0.764,-0.045
0.766,-0.045
0.768,-0.045
0.77,-0.05
0.772,-0.055
0.774,-0.065
0.776,-0.07
0.778,-0.075
0.78,-0.08
0.782,-0.075
0.784,-0.065
0.786,-0.055
0.788,-0.045
0.79,-0.035
0.792,-0.02
0.794,-0.015
0.796,-0.01
0.798,-0.01
0.8,-0.01
0.802,-0.015
0.804,-0.02
0.806,-0.025
0.808,-0.03
0.81,-0.035
0.812,-0.04
0.814,-0.045
0.816,-0.05
0.818,-0.055
0.82,-0.055
0.822,-0.055
0.824,-0.055
0.826,-0.055
0.828,-0.05
0.83,-0.05
0.832,-0.05
0.834,-0.05
0.836,-0.05
0.838,-0.05
0.84,-0.05
0.842,-0.05
0.844,-0.05
0.846,-0.05
0.848,-0.045
0.85,-0.04
0.852,-0.04
0.854,-0.035
0.856,-0.035
0.858,-0.04
0.86,-0.045
0.862,-0.05
0.864,-0.055
0.866,-0.055
0.868,-0.055
0.87,-0.055
0.872,-0.055
0.874,-0.05
0.876,-0.045
0.878,-0.04
0.88,-0.04
0.882,-0.04
0.884,-0.04
0.886,-0.045
0.888,-0.045
0.89,-0.05
0.892,-0.05
0.894,-0.05
0.896,-0.045
0.898,-0.045
0.9,-0.04
0.902,-0.035
0.904,-0.035
0.906,-0.03
0.908,-0.03
0.91,-0.025
0.912,-0.025
0.914,-0.02
0.916,-0.02
0.918,-0.02
0.92,-0.025
0.922,-0.03
0.924,-0.035
0.926,-0.04
0.928,-0.05
0.93,-0.055
0.932,-0.055
0.934,-0.05
0.936,-0.045
0.938,-0.04
0.94,-0.03
0.942,-0.025
0.944,-0.02
0.946,-0.025
0.948,-0.03
0.95,-0.04
0.952,-0.05
0.954,-0.055
0.956,-0.06
0.958,-0.06
0.96,-0.055
0.962,-0.05
0.964,-0.045
0.966,-0.035
0.968,-0.03
0.97,-0.03
0.972,-0.025
0.974,-0.025
0.976,-0.025
0.978,-0.02
0.98,-0.015
0.982,-0.005
0.984,0
0.986,0.005
0.988,0.01
0.99,0.005
0.992,0
0.994,-0.005
0.996,-0.015
0.998,-0.025
1,-0.03
1.002,-0.03
1.004,-0.03
1.006,-0.025
1.008,-0.015
1.01,-0.01
1.012,-0.005
1.014,0
1.016,0
1.018,0
1.02,-0.005
1.022,-0.01
1.024,-0.02
1.026,-0.03
1.028,-0.04
1.03,-0.05
1.032,-0.06
1.034,-0.065
1.036,-0.07
1.038,-0.075
1.04,-0.07
1.042,-0.06
1.044,-0.05
1.046,-0.035
1.048,-0.03
1.05,-0.025
1.052,-0.03
1.054,-0.04
1.056,-0.055
1.058,-0.07
1.06,-0.085
1.062,-0.095
1.064,-0.095
1.066,-0.085
1.068,-0.07
1.07,-0.06
1.072,-0.05
1.074,-0.05
1.076,-0.065
1.078,-0.09
1.08,-0.125
1.082,-0.165
1.084,-0.195
1.086,-0.21
1.088,-0.2
1.09,-0.16
1.092,-0.095
1.094,0.005
1.096,0.125
1.098,0.26
1.1,0.405
1.102,0.55
1.104,0.695
1.106,0.83
1.108,0.955
1.11,1.06
1.112,1.14
1.114,1.19
1.116,1.205
1.118,1.18
1.12,1.115
1.122,1.01
1.124,0.87
1.126,0.71
1.128,0.545
1.13,0.385
1.132,0.245
1.134,0.135
1.136,0.055
1.138,0
1.14,-0.025
1.142,-0.035
1.144,-0.035
1.146,-0.035
1.148,-0.035
1.15,-0.04
1.152,-0.05
1.154,-0.065
1.156,-0.075
1.158,-0.08
1.16,-0.085
1.162,-0.09
1.164,-0.09
1.166,-0.09
1.168,-0.09
1.17,-0.095
1.172,-0.1
1.174,-0.105
1.176,-0.105
1.178,-0.11
1.18,-0.105
1.182,-0.105
1.184,-0.105
1.186,-0.105
1.188,-0.105
1.19,-0.105
1.192,-0.1
1.194,-0.1
1.196,-0.095
1.198,-0.09
1.2,-0.08
1.202,-0.07
1.204,-0.06
1.206,-0.05
1.208,-0.05
1.21,-0.05
1.212,-0.055
1.214,-0.065
1.216,-0.075
1.218,-0.085
1.22,-0.095
1.222,-0.095
1.224,-0.095
1.226,-0.09
1.228,-0.085
1.23,-0.08
1.232,-0.07
1.234,-0.07
1.236,-0.065
1.238,-0.065
1.24,-0.065
1.242,-0.065
1.244,-0.065
1.246,-0.065
1.248,-0.06
1.25,-0.06
1.252,-0.06
1.254,-0.06
1.256,-0.065
1.258,-0.065
1.26,-0.075
1.262,-0.08
1.264,-0.085
1.266,-0.085
1.268,-0.085
1.27,-0.08
1.272,-0.075
1.274,-0.07
1.276,-0.065
1.278,-0.06
1.28,-0.055
1.282,-0.05
1.284,-0.045
1.286,-0.045
1.288,-0.04
1.29,-0.035
1.292,-0.025
1.294,-0.015
1.296,-0.005
1.298,0
1.3,0.005
1.302,0.01
1.304,0.005
1.306,0
1.308,-0.01
1.31,-0.02
1.312,-0.03
1.314,-0.035
1.316,-0.035
1.318,-0.03
1.32,-0.02
1.322,-0.005
1.324,0.015
1.326,0.03
1.328,0.045
1.33,0.06
1.332,0.065
1.334,0.07
1.336,0.07
1.338,0.07
1.34,0.07
1.342,0.065
1.344,0.065
1.346,0.07
1.348,0.07
1.35,0.07
1.352,0.065
1.354,0.065
1.356,0.06
1.358,0.06
1.36,0.06
1.362,0.06
1.364,0.06
1.366,0.06
1.368,0.06
1.37,0.065
1.372,0.06
1.374,0.06
1.376,0.055
1.378,0.045
1.38,0.035
1.382,0.03
1.384,0.02
1.386,0.01
1.388,0.005
1.39,0
1.392,0
1.394,0
1.396,0
1.398,0
1.4,0
1.402,-0.005
1.404,-0.005
1.406,-0.01
1.408,-0.02
1.41,-0.03
1.412,-0.04
1.414,-0.055
1.416,-0.065
1.418,-0.07
1.42,-0.075
1.422,-0.08
1.424,-0.08
1.426,-0.075
1.428,-0.07
1.43,-0.07
1.432,-0.065
1.434,-0.07
1.436,-0.07
1.438,-0.075
1.44,-0.075
1.442,-0.075
1.444,-0.075
1.446,-0.07
1.448,-0.07
1.45,-0.065
1.452,-0.065
1.454,-0.07
1.456,-0.075
1.458,-0.09
1.46,-0.1
1.462,-0.11
1.464,-0.115
1.466,-0.12
1.468,-0.11
1.47,-0.1
1.472,-0.085
1.474,-0.07
1.476,-0.055
1.478,-0.045
1.48,-0.04
1.482,-0.045
1.484,-0.055
1.486,-0.07
1.488,-0.085
1.49,-0.095
1.492,-0.1
1.494,-0.1
1.496,-0.095
1.498,-0.085
1.5,-0.07
1.502,-0.06
1.504,-0.055
1.506,-0.05
1.508,-0.055
1.51,-0.06
1.512,-0.065
1.514,-0.07
1.516,-0.07
1.518,-0.07
1.52,-0.065
1.522,-0.06
1.524,-0.055
1.526,-0.05
1.528,-0.055
1.53,-0.065
1.532,-0.075
1.534,-0.09
1.536,-0.105
1.538,-0.115
1.54,-0.12
1.542,-0.12
1.544,-0.115
1.546,-0.105
1.548,-0.095
1.55,-0.09
1.552,-0.085
1.554,-0.085
1.556,-0.085
1.558,-0.09
1.56,-0.095
1.562,-0.095
1.564,-0.09
1.566,-0.08
1.568,-0.075
1.57,-0.065
1.572,-0.055
1.574,-0.05
1.576,-0.05
1.578,-0.05
1.58,-0.055
1.582,-0.06
1.584,-0.065
1.586,-0.065
1.588,-0.065
1.59,-0.065
1.592,-0.065
1.594,-0.065
1.596,-0.07
1.598,-0.075
1.6,-0.085
1.602,-0.095
1.604,-0.1
1.606,-0.1
1.608,-0.095
1.61,-0.085
1.612,-0.07
1.614,-0.055
1.616,-0.04
1.618,-0.03
1.62,-0.03
1.622,-0.035
1.624,-0.045
1.626,-0.06
1.628,-0.08
1.63,-0.095
1.632,-0.105
1.634,-0.115
1.636,-0.115
1.638,-0.115
1.64,-0.11
1.642,-0.1
1.644,-0.09
1.646,-0.075
1.648,-0.065
1.65,-0.05
1.652,-0.04
1.654,-0.035
1.656,-0.03
1.658,-0.025
1.66,-0.03
1.662,-0.035
1.664,-0.045
1.666,-0.05
1.668,-0.06
1.67,-0.06
1.672,-0.06
1.674,-0.055
1.676,-0.045
1.678,-0.03
1.68,-0.015
1.682,0
1.684,0.01
1.686,0.015
1.688,0.015
1.69,0.01
1.692,-0.005
1.694,-0.02
1.696,-0.04
1.698,-0.055
1.7,-0.07
1.702,-0.08
1.704,-0.085
1.706,-0.085
1.708,-0.085
1.71,-0.08
1.712,-0.075
1.714,-0.075
1.716,-0.075
1.718,-0.08
1.72,-0.085
1.722,-0.085
1.724,-0.09
1.726,-0.085
1.728,-0.085
1.73,-0.075
1.732,-0.07
1.734,-0.065
1.736,-0.065
1.738,-0.065
1.74,-0.07
1.742,-0.08
1.744,-0.09
1.746,-0.095
1.748,-0.095
1.75,-0.09
1.752,-0.08
1.754,-0.065
1.756,-0.05
1.758,-0.035
1.76,-0.03
1.762,-0.03
1.764,-0.045
1.766,-0.07
1.768,-0.1
1.77,-0.135
1.772,-0.165
1.774,-0.185
1.776,-0.19
1.778,-0.175
1.78,-0.14
1.782,-0.085
1.784,-0.01
1.786,0.08
1.788,0.19
1.79,0.31
1.792,0.44
1.794,0.575
1.796,0.71
1.798,0.835
1.8,0.95
1.802,1.035
1.804,1.095
1.806,1.11
1.808,1.085
1.81,1.01
1.812,0.9
1.814,0.76
1.816,0.605
1.818,0.44
1.82,0.29
1.822,0.16
1.824,0.065
1.826,-0.005
1.828,-0.04
1.83,-0.05
1.832,-0.05
1.834,-0.04
1.836,-0.035
1.838,-0.03
1.84,-0.035
1.842,-0.045
1.844,-0.06
1.846,-0.07
1.848,-0.08
1.85,-0.085
1.852,-0.08
1.854,-0.075
1.856,-0.065
1.858,-0.055
1.86,-0.05
1.862,-0.05
1.864,-0.055
1.866,-0.065
1.868,-0.075
1.87,-0.085
1.872,-0.095
1.874,-0.1
1.876,-0.105
1.878,-0.105
1.88,-0.1
1.882,-0.1
1.884,-0.1
1.886,-0.1
1.888,-0.11
1.89,-0.115
1.892,-0.125
1.894,-0.13
1.896,-0.13
1.898,-0.125
1.9,-0.115
1.902,-0.1
1.904,-0.08
1.906,-0.06
1.908,-0.045
1.91,-0.035
1.912,-0.035
1.914,-0.04
1.916,-0.05
1.918,-0.065
1.92,-0.085
1.922,-0.1
1.924,-0.11
1.926,-0.11
1.928,-0.11
1.93,-0.1
1.932,-0.09
1.934,-0.08
1.936,-0.075
1.938,-0.07
1.94,-0.07
1.942,-0.075
1.944,-0.08
1.946,-0.085
1.948,-0.085
1.95,-0.085
1.952,-0.08
1.954,-0.07
1.956,-0.06
1.958,-0.05
1.96,-0.04
1.962,-0.035
1.964,-0.03
1.966,-0.03
1.968,-0.035
1.97,-0.035
1.972,-0.04
1.974,-0.04
1.976,-0.04
1.978,-0.04
1.98,-0.04
1.982,-0.035
1.984,-0.03
1.986,-0.025
1.988,-0.02
1.99,-0.015
1.992,-0.01
1.994,-0.005
1.996,0
1.998,0.005
2,0.01
2.002,0.015
2.004,0.02
2.006,0.02
2.008,0.025
2.01,0.025
2.012,0.025
2.014,0.025
2.016,0.03
2.018,0.035
2.02,0.04
2.022,0.05
2.024,0.055
2.026,0.065
2.028,0.07
2.03,0.07
2.032,0.075
2.034,0.07
2.036,0.07
2.038,0.07
2.04,0.065
2.042,0.065
2.044,0.07
2.046,0.075
2.048,0.085
2.05,0.09
2.052,0.095
2.054,0.1
2.056,0.1
2.058,0.1
2.06,0.09
2.062,0.075
2.064,0.065
2.066,0.05
2.068,0.035
2.07,0.025
2.072,0.015
2.074,0.015
2.076,0.015
2.078,0.02
2.08,0.025
2.082,0.025
2.084,0.02
2.086,0.015
2.088,0
2.09,-0.015
2.092,-0.035
2.094,-0.055
2.096,-0.07
2.098,-0.08
2.1,-0.085
2.102,-0.085
2.104,-0.08
2.106,-0.075
2.108,-0.065
2.11,-0.055
2.112,-0.05
2.114,-0.045
2.116,-0.045
2.118,-0.045
2.12,-0.05
2.122,-0.05
2.124,-0.055
2.126,-0.06
2.128,-0.06
2.13,-0.065
2.132,-0.065
2.134,-0.07
2.136,-0.07
2.138,-0.07
2.14,-0.065
2.142,-0.06
2.144,-0.05
2.146,-0.045
2.148,-0.035
2.15,-0.03
2.152,-0.035
2.154,-0.04
2.156,-0.05
2.158,-0.065
2.16,-0.085
2.162,-0.1
2.164,-0.11
2.166,-0.115
2.168,-0.11
2.17,-0.1
2.172,-0.08
2.174,-0.06
2.176,-0.04
2.178,-0.025
2.18,-0.02
2.182,-0.02
2.184,-0.03
2.186,-0.045
2.188,-0.065
2.19,-0.085
2.192,-0.095
2.194,-0.1
2.196,-0.1
2.198,-0.085
2.2,-0.07
2.202,-0.05
2.204,-0.035
2.206,-0.02
2.208,-0.015
2.21,-0.015
2.212,-0.025
2.214,-0.035
2.216,-0.05
2.218,-0.065
2.22,-0.08
2.222,-0.085
2.224,-0.085
2.226,-0.08
2.228,-0.07
2.23,-0.055
2.232,-0.045
2.234,-0.03
2.236,-0.025
2.238,-0.02
2.24,-0.025
2.242,-0.03
2.244,-0.04
2.246,-0.055
2.248,-0.07
2.25,-0.08
2.252,-0.085
2.254,-0.085
2.256,-0.08
2.258,-0.07
2.26,-0.055
2.262,-0.04
2.264,-0.03
2.266,-0.02
2.268,-0.02
2.27,-0.025
2.272,-0.035
2.274,-0.045
2.276,-0.055
2.278,-0.06
2.28,-0.065
2.282,-0.06
2.284,-0.055
2.286,-0.045
2.288,-0.035
2.29,-0.03
2.292,-0.025
2.294,-0.03
2.296,-0.035
2.298,-0.04
2.3,-0.045
2.302,-0.05
2.304,-0.05
2.306,-0.045
2.308,-0.035
2.31,-0.02
2.312,-0.01
2.314,0
2.316,0.005
2.318,0.005
2.32,0.005
2.322,0.005
2.324,0.005
2.326,0.005
2.328,0.01
2.33,0.01
2.332,0.02
2.334,0.025
2.336,0.025
2.338,0.025
2.34,0.02
2.342,0.01
2.344,0
2.346,-0.01
2.348,-0.02
2.35,-0.03
2.352,-0.035
2.354,-0.04
2.356,-0.04
2.358,-0.04
2.36,-0.04
2.362,-0.04
2.364,-0.045
2.366,-0.045
2.368,-0.055
2.37,-0.06
2.372,-0.065
2.374,-0.07
2.376,-0.075
2.378,-0.075
2.38,-0.07
2.382,-0.065
2.384,-0.055
2.386,-0.04
2.388,-0.03
2.39,-0.02
2.392,-0.015
2.394,-0.015
2.396,-0.015
2.398,-0.025
2.4,-0.035
2.402,-0.045
2.404,-0.06
2.406,-0.07
2.408,-0.075
2.41,-0.075
2.412,-0.075
2.414,-0.07
2.416,-0.07
2.418,-0.07
2.42,-0.075
2.422,-0.085
2.424,-0.1
2.426,-0.12
2.428,-0.14
2.43,-0.16
2.432,-0.175
2.434,-0.18
2.436,-0.175
2.438,-0.15
2.44,-0.11
2.442,-0.05
2.444,0.03
2.446,0.125
2.448,0.235
2.45,0.36
2.452,0.495
2.454,0.635
2.456,0.775
2.458,0.91
2.46,1.02
2.462,1.105
2.464,1.155
2.466,1.155
2.468,1.115
2.47,1.03
2.472,0.905
2.474,0.755
2.476,0.595
2.478,0.435
2.48,0.29
2.482,0.175
2.484,0.09
2.486,0.03
2.488,0.005
2.49,-0.005
2.492,-0.005
2.494,-0.005
2.496,-0.01
2.498,-0.02
2.5,-0.035
2.502,-0.055
2.504,-0.08
2.506,-0.095
2.508,-0.11
2.51,-0.115
2.512,-0.115
2.514,-0.11
2.516,-0.105
2.518,-0.095
2.52,-0.095
2.522,-0.095
2.524,-0.095
2.526,-0.1
2.528,-0.11
2.53,-0.115
2.532,-0.12
2.534,-0.12
2.536,-0.125
2.538,-0.12
2.54,-0.115
2.542,-0.11
2.544,-0.1
2.546,-0.095
2.548,-0.085
2.55,-0.075
2.552,-0.07
2.554,-0.065
2.556,-0.065
2.558,-0.07
2.56,-0.075
2.562,-0.08
2.564,-0.09
2.566,-0.095
2.568,-0.1
2.57,-0.1
2.572,-0.1
2.574,-0.095
2.576,-0.09
2.578,-0.085
2.58,-0.08
2.582,-0.08
2.584,-0.075
2.586,-0.075
2.588,-0.08
2.59,-0.08
2.592,-0.08
2.594,-0.08
2.596,-0.08
2.598,-0.075
2.6,-0.075
2.602,-0.075
2.604,-0.075
2.606,-0.075
2.608,-0.08
2.61,-0.085
2.612,-0.09
2.614,-0.09
2.616,-0.09
2.618,-0.08
2.62,-0.075
2.622,-0.065
2.624,-0.055
2.626,-0.045
2.628,-0.045
2.63,-0.045
2.632,-0.05
2.634,-0.06
2.636,-0.07
2.638,-0.075
2.64,-0.075
2.642,-0.065
2.644,-0.05
2.646,-0.025
2.648,-0.005
2.65,0.02
2.652,0.035
2.654,0.045
2.656,0.045
2.658,0.04
2.66,0.03
2.662,0.02
2.664,0.015
2.666,0.01
2.668,0.015
2.67,0.025
2.672,0.04
2.674,0.055
2.676,0.07
2.678,0.08
2.68,0.085
2.682,0.085
2.684,0.08
2.686,0.075
2.688,0.07
2.69,0.065
2.692,0.065
2.694,0.07
2.696,0.07
2.698,0.075
2.7,0.08
2.702,0.08
2.704,0.08
2.706,0.08
2.708,0.08
2.71,0.075
2.712,0.075
2.714,0.07
2.716,0.07
2.718,0.065
2.72,0.06
2.722,0.055
2.724,0.05
2.726,0.045
2.728,0.04
2.73,0.035
2.732,0.025
2.734,0.02
2.736,0.015
2.738,0.01
2.74,0
2.742,-0.015
2.744,-0.025
2.746,-0.045
2.748,-0.06
2.75,-0.075
2.752,-0.085
2.754,-0.09
2.756,-0.085
2.758,-0.08
2.76,-0.065
2.762,-0.05
2.764,-0.035
2.766,-0.025
2.768,-0.015
2.77,-0.015
2.772,-0.025
2.774,-0.035
2.776,-0.045
2.778,-0.055
2.78,-0.06
2.782,-0.065
2.784,-0.065
2.786,-0.06
2.788,-0.055
2.79,-0.05
2.792,-0.05
2.794,-0.055
2.796,-0.06
2.798,-0.065
2.8,-0.075
2.802,-0.08
2.804,-0.08
2.806,-0.08
2.808,-0.07
2.81,-0.06
2.812,-0.05
2.814,-0.04
2.816,-0.03
2.818,-0.025
2.82,-0.03
2.822,-0.035
2.824,-0.05
2.826,-0.06
2.828,-0.075
2.83,-0.085
2.832,-0.09
2.834,-0.09
2.836,-0.085
2.838,-0.08
2.84,-0.07
2.842,-0.06
2.844,-0.055
2.846,-0.05
2.848,-0.045
2.85,-0.05
2.852,-0.055
2.854,-0.06
2.856,-0.07
2.858,-0.075
2.86,-0.08
2.862,-0.085
2.864,-0.09
2.866,-0.085
2.868,-0.08
2.87,-0.075
2.872,-0.065
2.874,-0.055
2.876,-0.045
2.878,-0.04
2.88,-0.04
2.882,-0.04
2.884,-0.045
2.886,-0.05
2.888,-0.06
2.89,-0.065
2.892,-0.065
2.894,-0.065
2.896,-0.06
2.898,-0.055
2.9,-0.05
2.902,-0.045
2.904,-0.04
2.906,-0.04
2.908,-0.04
2.91,-0.045
2.912,-0.05
2.914,-0.055
2.916,-0.055
2.918,-0.06
2.92,-0.06
2.922,-0.055
2.924,-0.05
2.926,-0.045
2.928,-0.035
2.93,-0.03
2.932,-0.02
2.934,-0.015
2.936,-0.015
2.938,-0.01
2.94,-0.01
2.942,-0.015
2.944,-0.02
2.946,-0.025
2.948,-0.025
2.95,-0.03
2.952,-0.03
2.954,-0.03
2.956,-0.025
2.958,-0.015
2.96,-0.005
2.962,0
2.964,0.01
2.966,0.01
2.968,0.01
2.97,0.005
2.972,-0.005
2.974,-0.02
2.976,-0.03
2.978,-0.04
2.98,-0.045
2.982,-0.045
2.984,-0.045
2.986,-0.035
2.988,-0.03
2.99,-0.02
2.992,-0.015
2.994,-0.015
2.996,-0.02
2.998,-0.03
3,-0.04
3.002,-0.055
3.004,-0.065
3.006,-0.075
3.008,-0.08
3.01,-0.085
3.012,-0.08
3.014,-0.08
3.016,-0.075
3.018,-0.07
3.02,-0.07
3.022,-0.07
3.024,-0.07
3.026,-0.075
3.028,-0.08
3.03,-0.08
3.032,-0.08
3.034,-0.08
3.036,-0.07
3.038,-0.06
3.04,-0.05
3.042,-0.04
3.044,-0.04
3.046,-0.04
3.048,-0.05
3.05,-0.07
3.052,-0.1
3.054,-0.135
3.056,-0.17
3.058,-0.2
3.06,-0.22
3.062,-0.215
3.064,-0.19
3.066,-0.135
3.068,-0.05
3.07,0.06
3.072,0.195
3.074,0.34
3.076,0.495
3.078,0.65
3.08,0.8
3.082,0.935
3.084,1.05
3.086,1.14
3.088,1.205
3.09,1.235
3.092,1.225
3.094,1.18
3.096,1.09
3.098,0.965
3.1,0.815
3.102,0.65
3.104,0.48
3.106,0.325
3.108,0.195
3.11,0.095
3.112,0.03
3.114,-0.01
3.116,-0.025
3.118,-0.025
3.12,-0.025
3.122,-0.025
3.124,-0.03
3.126,-0.045
3.128,-0.065
3.13,-0.08
3.132,-0.095
3.134,-0.105
3.136,-0.105
3.138,-0.105
3.14,-0.095
3.142,-0.09
3.144,-0.085
3.146,-0.085
3.148,-0.085
3.15,-0.085
3.152,-0.085
3.154,-0.085
3.156,-0.08
3.158,-0.075
3.16,-0.075
3.162,-0.075
3.164,-0.08
3.166,-0.085
3.168,-0.095
3.17,-0.1
3.172,-0.11
3.174,-0.11
3.176,-0.105
3.178,-0.095
3.18,-0.085
3.182,-0.075
3.184,-0.075
3.186,-0.075
3.188,-0.08
3.19,-0.09
3.192,-0.1
3.194,-0.11
3.196,-0.11
3.198,-0.105
3.2,-0.095
3.202,-0.08
3.204,-0.065
3.206,-0.055
3.208,-0.05
3.21,-0.055
3.212,-0.065
3.214,-0.075
3.216,-0.09
3.218,-0.105
3.22,-0.115
3.222,-0.115
3.224,-0.115
3.226,-0.105
3.228,-0.09
3.23,-0.075
3.232,-0.065
3.234,-0.055
3.236,-0.05
3.238,-0.045
3.24,-0.045
3.242,-0.05
3.244,-0.05
3.246,-0.055
3.248,-0.055
3.25,-0.055
3.252,-0.055
3.254,-0.055
3.256,-0.055
3.258,-0.055
3.26,-0.055
3.262,-0.05
3.264,-0.045
3.266,-0.04
3.268,-0.03
3.27,-0.015
3.272,-0.005
3.274,0.005
3.276,0.01
3.278,0.015
3.28,0.015
3.282,0.01
3.284,0.005
3.286,-0.005
3.288,-0.01
3.29,-0.01
3.292,-0.005
3.294,0
3.296,0.015
3.298,0.03
3.3,0.045
3.302,0.06
3.304,0.07
3.306,0.08
3.308,0.08
3.31,0.08
3.312,0.075
3.314,0.075
3.316,0.07
3.318,0.07
3.32,0.07
3.322,0.075
3.324,0.085
3.326,0.09
3.328,0.095
3.33,0.095
3.332,0.095
3.334,0.085
3.336,0.08
3.338,0.075
3.34,0.065
3.342,0.065
3.344,0.065
3.346,0.065
3.348,0.065
3.35,0.065
3.352,0.06
3.354,0.055
3.356,0.04
3.358,0.025
3.36,0.01
3.362,-0.005
3.364,-0.02
3.366,-0.03
3.368,-0.035
3.37,-0.04
3.372,-0.04
3.374,-0.035
3.376,-0.035
3.378,-0.03
3.38,-0.035
3.382,-0.035
3.384,-0.04
3.386,-0.045
3.388,-0.045
3.39,-0.05
3.392,-0.05
3.394,-0.05
3.396,-0.05
3.398,-0.05
3.4,-0.05
3.402,-0.05
3.404,-0.055
3.406,-0.055
3.408,-0.055
3.41,-0.055
3.412,-0.055
3.414,-0.055
3.416,-0.055
3.418,-0.055
3.42,-0.06
3.422,-0.06
3.424,-0.065
3.426,-0.065
3.428,-0.065
3.43,-0.06
3.432,-0.055
3.434,-0.05
3.436,-0.045
3.438,-0.035
3.44,-0.035
3.442,-0.035
3.444,-0.035
3.446,-0.04
3.448,-0.05
3.45,-0.06
3.452,-0.065
3.454,-0.07
3.456,-0.07
3.458,-0.065
3.46,-0.06
3.462,-0.055
3.464,-0.05
3.466,-0.05
3.468,-0.055
3.47,-0.06
3.472,-0.075
3.474,-0.085
3.476,-0.1
3.478,-0.105
3.48,-0.11
3.482,-0.11
3.484,-0.105
3.486,-0.1
3.488,-0.09
3.49,-0.075
3.492,-0.065
3.494,-0.055
3.496,-0.045
3.498,-0.04
3.5,-0.04
3.502,-0.04
3.504,-0.04
3.506,-0.045
3.508,-0.045
3.51,-0.05
3.512,-0.055
3.514,-0.065
3.516,-0.07
3.518,-0.075
3.52,-0.08
3.522,-0.085
3.524,-0.09
3.526,-0.09
3.528,-0.085
3.53,-0.08
3.532,-0.075
3.534,-0.07
3.536,-0.06
3.538,-0.055
3.54,-0.05
3.542,-0.05
3.544,-0.05
3.546,-0.055
3.548,-0.055
3.55,-0.06
3.552,-0.065
3.554,-0.065
3.556,-0.065
3.558,-0.065
3.56,-0.065
3.562,-0.065
3.564,-0.065
3.566,-0.065
3.568,-0.065
3.57,-0.06
3.572,-0.055
3.574,-0.05
3.576,-0.045
3.578,-0.035
3.58,-0.035
3.582,-0.03
3.584,-0.035
3.586,-0.04
3.588,-0.05
3.59,-0.06
3.592,-0.065
3.594,-0.07
3.596,-0.07
3.598,-0.07
3.6,-0.06
3.602,-0.05
3.604,-0.04
3.606,-0.03
3.608,-0.02
3.61,-0.015
3.612,-0.01
3.614,-0.01
3.616,-0.005
3.618,-0.005
3.62,0
3.622,0.005
3.624,0.01
3.626,0.015
3.628,0.02
3.63,0.015
3.632,0.01
3.634,0
3.636,-0.015
3.638,-0.03
3.64,-0.045
3.642,-0.055
3.644,-0.07
3.646,-0.075
3.648,-0.08
3.65,-0.075
3.652,-0.075
3.654,-0.07
3.656,-0.065
3.658,-0.055
3.66,-0.055
3.662,-0.05
3.664,-0.05
3.666,-0.05
3.668,-0.05
3.67,-0.055
3.672,-0.06
3.674,-0.07
3.676,-0.08
3.678,-0.085
3.68,-0.09
3.682,-0.09
3.684,-0.085
3.686,-0.08
3.688,-0.07
3.69,-0.06
3.692,-0.05
3.694,-0.045
3.696,-0.05
3.698,-0.06
3.7,-0.07
3.702,-0.085
3.704,-0.1
3.706,-0.11
3.708,-0.115
3.71,-0.115
3.712,-0.115
3.714,-0.115
3.716,-0.12
3.718,-0.13
3.72,-0.15
3.722,-0.175
3.724,-0.19
3.726,-0.2
3.728,-0.185
3.73,-0.145
3.732,-0.075
3.734,0.025
3.736,0.155
3.738,0.305
3.74,0.47
3.742,0.64
3.744,0.805
3.746,0.955
3.748,1.08
3.75,1.175
3.752,1.235
3.754,1.255
3.756,1.235
3.758,1.165
3.76,1.06
3.762,0.925
3.764,0.76
3.766,0.595
3.768,0.43
3.77,0.285
3.772,0.17
3.774,0.09
3.776,0.04
3.778,0.015
3.78,0.01
3.782,0.01
3.784,0.005
3.786,-0.005
3.788,-0.03
3.79,-0.06
3.792,-0.095
3.794,-0.13
3.796,-0.15
3.798,-0.165
3.8,-0.165
3.802,-0.155
3.804,-0.135
3.806,-0.12
3.808,-0.105
3.81,-0.095
3.812,-0.095
3.814,-0.1
3.816,-0.105
3.818,-0.115
3.82,-0.125
3.822,-0.135
3.824,-0.14
3.826,-0.15
3.828,-0.155
3.83,-0.16
3.832,-0.16
3.834,-0.155
3.836,-0.15
3.838,-0.135
3.84,-0.12
3.842,-0.1
3.844,-0.085
3.846,-0.07
3.848,-0.065
3.85,-0.065
3.852,-0.075
3.854,-0.09
3.856,-0.105
3.858,-0.125
3.86,-0.135
3.862,-0.14
3.864,-0.135
3.866,-0.125
3.868,-0.11
3.87,-0.095
3.872,-0.085
3.874,-0.075
3.876,-0.075
3.878,-0.08
3.88,-0.09
3.882,-0.105
3.884,-0.115
3.886,-0.125
3.888,-0.13
3.89,-0.125
3.892,-0.115
3.894,-0.105
3.896,-0.09
3.898,-0.07
3.9,-0.055
3.902,-0.045
3.904,-0.035
3.906,-0.035
3.908,-0.035
3.91,-0.045
3.912,-0.06
3.914,-0.075
3.916,-0.09
3.918,-0.105
3.92,-0.115
3.922,-0.12
3.924,-0.115
3.926,-0.105
3.928,-0.09
3.93,-0.07
3.932,-0.045
3.934,-0.025
3.936,-0.01
3.938,0
3.94,0
3.942,-0.005
3.944,-0.02
3.946,-0.035
3.948,-0.045
3.95,-0.05
3.952,-0.05
3.954,-0.04
3.956,-0.02
3.958,0
3.96,0.025
3.962,0.05
3.964,0.07
3.966,0.08
3.968,0.085
3.97,0.08
3.972,0.07
3.974,0.055
3.976,0.04
3.978,0.03
3.98,0.02
3.982,0.02
3.984,0.02
3.986,0.025
3.988,0.03
3.99,0.035
3.992,0.04
3.994,0.045
3.996,0.045
3.998,0.045
4,0.045
4.002,0.045
4.004,0.045
4.006,0.04
4.008,0.04
4.01,0.03
4.012,0.025
4.014,0.015
4.016,0.005
4.018,-0.005
4.02,-0.01
4.022,-0.01
4.024,-0.01
4.026,-0.005
4.028,-0.005
4.03,0
4.032,0
4.034,-0.005
4.036,-0.015
4.038,-0.025
4.04,-0.045
4.042,-0.06
4.044,-0.07
4.046,-0.08
4.048,-0.08
4.05,-0.075
4.052,-0.065
4.054,-0.055
4.056,-0.045
4.058,-0.04
4.06,-0.035
4.062,-0.04
4.064,-0.05
4.066,-0.065
4.068,-0.085
4.07,-0.1
4.072,-0.115
4.074,-0.13
4.076,-0.135
4.078,-0.135
4.08,-0.13
4.082,-0.125
4.084,-0.11
4.086,-0.095
4.088,-0.08
4.09,-0.065
4.092,-0.055
4.094,-0.05
4.096,-0.045
4.098,-0.05
4.1,-0.055
4.102,-0.065
4.104,-0.07
4.106,-0.075
4.108,-0.075
4.11,-0.07
4.112,-0.065
4.114,-0.05
4.116,-0.04
4.118,-0.03
4.12,-0.02
4.122,-0.02
4.124,-0.025
4.126,-0.035
4.128,-0.045
4.13,-0.06
4.132,-0.075
4.134,-0.085
4.136,-0.095
4.138,-0.095
4.14,-0.095
4.142,-0.085
4.144,-0.075
4.146,-0.065
4.148,-0.06
4.15,-0.05
4.152,-0.05
4.154,-0.05
4.156,-0.06
4.158,-0.065
4.16,-0.08
4.162,-0.09
4.164,-0.095
4.166,-0.095
4.168,-0.095
4.17,-0.085
4.172,-0.075
4.174,-0.06
4.176,-0.045
4.178,-0.035
4.18,-0.03
4.182,-0.03
4.184,-0.035
4.186,-0.04
4.188,-0.05
4.19,-0.055
4.192,-0.06
4.194,-0.06
4.196,-0.055
4.198,-0.05
4.2,-0.04
4.202,-0.03
4.204,-0.025
4.206,-0.02
4.208,-0.02
4.21,-0.025
4.212,-0.03
4.214,-0.04
4.216,-0.045
4.218,-0.05
4.22,-0.055
4.222,-0.06
4.224,-0.06
4.226,-0.06
4.228,-0.065
4.23,-0.065
4.232,-0.07
4.234,-0.075
4.236,-0.075
4.238,-0.075
4.24,-0.075
4.242,-0.065
4.244,-0.06
4.246,-0.05
4.248,-0.04
4.25,-0.035
4.252,-0.035
4.254,-0.035
4.256,-0.04
4.258,-0.05
4.26,-0.055
4.262,-0.06
4.264,-0.055
4.266,-0.05
4.268,-0.04
4.27,-0.03
4.272,-0.02
4.274,-0.01
4.276,-0.01
4.278,-0.015
4.28,-0.025
4.282,-0.04
4.284,-0.05
4.286,-0.06
4.288,-0.065
4.29,-0.06
4.292,-0.05
4.294,-0.03
4.296,-0.015
4.298,0
4.3,0.015
4.302,0.02
4.304,0.015
4.306,0.005
4.308,-0.005
4.31,-0.015
4.312,-0.025
4.314,-0.025
4.316,-0.02
4.318,-0.01
4.32,0
4.322,0.015
4.324,0.02
4.326,0.025
4.328,0.02
4.33,0.01
4.332,-0.005
4.334,-0.02
4.336,-0.03
4.338,-0.04
4.34,-0.045
4.342,-0.045
4.344,-0.045
4.346,-0.04
4.348,-0.04
4.35,-0.04
4.352,-0.045
4.354,-0.05
4.356,-0.055
4.358,-0.055
4.36,-0.055
4.362,-0.05
4.364,-0.045
4.366,-0.035
4.368,-0.025
4.37,-0.025
4.372,-0.025
4.374,-0.03
4.376,-0.035
4.378,-0.045
4.38,-0.055
4.382,-0.06
4.384,-0.065
4.386,-0.065
4.388,-0.06
4.39,-0.055
4.392,-0.05
4.394,-0.05
4.396,-0.05
4.398,-0.055
4.4,-0.055
4.402,-0.06
4.404,-0.065
4.406,-0.065
4.408,-0.07
4.41,-0.07
4.412,-0.08
4.414,-0.09
4.416,-0.11
4.418,-0.13
4.42,-0.155
4.422,-0.175
4.424,-0.19
4.426,-0.19
4.428,-0.17
4.43,-0.13
4.432,-0.065
4.434,0.02
4.436,0.135
4.438,0.265
4.44,0.405
4.442,0.56
4.444,0.71
4.446,0.855
4.448,0.985
4.45,1.085
4.452,1.155
4.454,1.18
4.456,1.16
4.458,1.1
4.46,0.99
4.462,0.85
4.464,0.69
4.466,0.525
4.468,0.365
4.47,0.225
4.472,0.11
4.474,0.03
4.476,-0.015
4.478,-0.04
4.48,-0.045
4.482,-0.04
4.484,-0.04
4.486,-0.04
4.488,-0.045
4.49,-0.06
4.492,-0.075
4.494,-0.09
4.496,-0.105
4.498,-0.105
4.5,-0.105
4.502,-0.095
4.504,-0.085
4.506,-0.07
4.508,-0.06
4.51,-0.055
4.512,-0.06
4.514,-0.065
4.516,-0.07
4.518,-0.08
4.52,-0.09
4.522,-0.095
4.524,-0.1
4.526,-0.105
4.528,-0.105
4.53,-0.105
4.532,-0.1
4.534,-0.1
4.536,-0.095
4.538,-0.095
4.54,-0.095
4.542,-0.095
4.544,-0.095
4.546,-0.095
4.548,-0.1
4.55,-0.1
4.552,-0.1
4.554,-0.1
4.556,-0.095
4.558,-0.09
4.56,-0.085
4.562,-0.08
4.564,-0.075
4.566,-0.065
4.568,-0.06
4.57,-0.05
4.572,-0.045
4.574,-0.04
4.576,-0.035
4.578,-0.03
4.58,-0.035
4.582,-0.045
4.584,-0.06
4.586,-0.075
4.588,-0.085
4.59,-0.095
4.592,-0.095
4.594,-0.085
4.596,-0.065
4.598,-0.04
4.6,-0.015
4.602,0.005
4.604,0.02
4.606,0.02
4.608,0.005
4.61,-0.02
4.612,-0.05
4.614,-0.075
4.616,-0.09
4.618,-0.09
4.62,-0.075
4.622,-0.045
4.624,-0.01
4.626,0.02
4.628,0.045
4.63,0.06
4.632,0.06
4.634,0.05
4.636,0.03
4.638,0.01
4.64,-0.005
4.642,-0.01
4.644,-0.005
4.646,0.01
4.648,0.03
4.65,0.055
4.652,0.075
4.654,0.09
4.656,0.1
4.658,0.1
4.66,0.1
4.662,0.1
4.664,0.095
4.666,0.09
4.668,0.085
4.67,0.08
4.672,0.08
4.674,0.075
4.676,0.07
4.678,0.07
4.68,0.075
4.682,0.08
4.684,0.09
4.686,0.1
4.688,0.11
4.69,0.11
4.692,0.11
4.694,0.1
4.696,0.085
4.698,0.065
4.7,0.045
4.702,0.03
4.704,0.02
4.706,0.015
4.708,0.02
4.71,0.035
4.712,0.045
4.714,0.06
4.716,0.065
4.718,0.065
4.72,0.06
4.722,0.045
4.724,0.03
4.726,0.015
4.728,0
4.73,-0.005
4.732,-0.01
4.734,-0.01
4.736,-0.005
4.738,0
4.74,0.005
4.742,0.005
4.744,0.005
4.746,-0.005
4.748,-0.01
4.75,-0.025
4.752,-0.035
4.754,-0.045
4.756,-0.055
4.758,-0.065
4.76,-0.075
4.762,-0.08
4.764,-0.085
4.766,-0.09
4.768,-0.085
4.77,-0.08
4.772,-0.07
4.774,-0.055
4.776,-0.04
4.778,-0.03
4.78,-0.015
4.782,-0.01
4.784,-0.01
4.786,-0.015
4.788,-0.025
4.79,-0.035
4.792,-0.045
4.794,-0.05
4.796,-0.05
4.798,-0.045
4.8,-0.035
4.802,-0.025
4.804,-0.015
4.806,-0.01
4.808,-0.01
4.81,-0.015
4.812,-0.02
4.814,-0.03
4.816,-0.04
4.818,-0.05
4.82,-0.055
4.822,-0.055
4.824,-0.055
4.826,-0.05
4.828,-0.045
4.83,-0.035
4.832,-0.03
4.834,-0.02
4.836,-0.02
4.838,-0.015
4.84,-0.015
4.842,-0.02
4.844,-0.025
4.846,-0.03
4.848,-0.035
4.85,-0.045
4.852,-0.055
4.854,-0.06
4.856,-0.06
4.858,-0.055
4.86,-0.045
4.862,-0.035
4.864,-0.02
4.866,-0.01
4.868,0
4.87,0
4.872,-0.005
4.874,-0.02
4.876,-0.035
4.878,-0.055
4.88,-0.07
4.882,-0.08
4.884,-0.08
4.886,-0.065
4.888,-0.05
4.89,-0.025
4.892,-0.005
4.894,0.01
4.896,0.02
4.898,0.02
4.9,0.01
4.902,-0.005
4.904,-0.025
4.906,-0.04
4.908,-0.05
4.91,-0.055
4.912,-0.05
4.914,-0.04
4.916,-0.03
4.918,-0.02
4.92,-0.01
4.922,-0.01
4.924,-0.01
4.926,-0.015
4.928,-0.025
4.93,-0.035
4.932,-0.04
4.934,-0.045
4.936,-0.045
4.938,-0.04
4.94,-0.04
4.942,-0.035
4.944,-0.035
4.946,-0.04
4.948,-0.05
4.95,-0.055
4.952,-0.065
4.954,-0.075
4.956,-0.075
4.958,-0.075
4.96,-0.065
4.962,-0.055
4.964,-0.04
4.966,-0.025
4.968,-0.015
4.97,-0.005
4.972,0
4.974,0.005
4.976,0
4.978,0
4.98,-0.005
4.982,-0.005
4.984,-0.005
4.986,-0.005
4.988,0
4.99,0.005
4.992,0.01
4.994,0.01
4.996,0.01
4.998,0.005
5,-0.005
5.002,-0.015
5.004,-0.03
5.006,-0.04
5.008,-0.05
5.01,-0.055
5.012,-0.06
5.014,-0.06
5.016,-0.055
5.018,-0.05
5.02,-0.045
5.022,-0.045
5.024,-0.05
5.026,-0.055
5.028,-0.065
5.03,-0.07
5.032,-0.08
5.034,-0.085
5.036,-0.085
5.038,-0.085
5.04,-0.08
5.042,-0.075
5.044,-0.065
5.046,-0.065
5.048,-0.06
5.05,-0.06
5.052,-0.06
5.054,-0.06
5.056,-0.06
5.058,-0.06
5.06,-0.06
5.062,-0.06
5.064,-0.06
5.066,-0.065
5.068,-0.07
5.07,-0.075
5.072,-0.075
5.074,-0.08
5.076,-0.075
5.078,-0.075
5.08,-0.07
5.082,-0.065
5.084,-0.07
5.086,-0.085
5.088,-0.11
5.09,-0.14
5.092,-0.17
5.094,-0.2
5.096,-0.215
5.098,-0.21
5.1,-0.175
5.102,-0.115
5.104,-0.025
5.106,0.09
5.108,0.225
5.11,0.37
5.112,0.51
5.114,0.65
5.116,0.78
5.118,0.89
5.12,0.98
5.122,1.045
5.124,1.08
5.126,1.085
5.128,1.055
5.13,0.99
5.132,0.89
5.134,0.765
5.136,0.62
5.138,0.47
5.14,0.33
5.142,0.205
5.144,0.11
5.146,0.045
5.148,0.01
5.15,-0.005
5.152,-0.01
5.154,-0.01
5.156,-0.015
5.158,-0.03
5.16,-0.05
5.162,-0.075
5.164,-0.1
5.166,-0.115
5.168,-0.125
5.17,-0.12
5.172,-0.11
5.174,-0.09
5.176,-0.075
5.178,-0.065
5.18,-0.06
5.182,-0.07
5.184,-0.08
5.186,-0.1
5.188,-0.115
5.19,-0.125
5.192,-0.125
5.194,-0.12
5.196,-0.115
5.198,-0.1
5.2,-0.09
5.202,-0.08
5.204,-0.075
5.206,-0.075
5.208,-0.075
5.21,-0.08
5.212,-0.085
5.214,-0.09
5.216,-0.09
5.218,-0.085
5.22,-0.08
5.222,-0.075
5.224,-0.07
5.226,-0.07
5.228,-0.065
5.23,-0.065
5.232,-0.06
5.234,-0.06
5.236,-0.06
5.238,-0.065
5.24,-0.065
5.242,-0.07
5.244,-0.07
5.246,-0.075
5.248,-0.08
5.25,-0.085
5.252,-0.09
5.254,-0.09
5.256,-0.09
5.258,-0.09
5.26,-0.09
5.262,-0.085
5.264,-0.08
5.266,-0.07
5.268,-0.06
5.27,-0.05
5.272,-0.045
5.274,-0.04
5.276,-0.035
5.278,-0.035
5.28,-0.04
5.282,-0.05
5.284,-0.055
5.286,-0.06
5.288,-0.065
5.29,-0.065
5.292,-0.06
5.294,-0.05
5.296,-0.035
5.298,-0.02
5.3,-0.005
5.302,0.01
5.304,0.02
5.306,0.025
5.308,0.03
5.31,0.03
5.312,0.03
5.314,0.035
5.316,0.035
5.318,0.035
5.32,0.04
5.322,0.04
5.324,0.04
5.326,0.04
5.328,0.035
5.33,0.035
5.332,0.035
5.334,0.035
5.336,0.04
5.338,0.045
5.34,0.055
5.342,0.07
5.344,0.08
5.346,0.09
5.348,0.1
5.35,0.105
5.352,0.11
5.354,0.115
5.356,0.12
5.358,0.12
5.36,0.12
5.362,0.12
5.364,0.115
5.366,0.105
5.368,0.09
5.37,0.08
5.372,0.065
5.374,0.05
5.376,0.045
5.378,0.04
5.38,0.04
5.382,0.045
5.384,0.055
5.386,0.065
5.388,0.07
5.39,0.075
5.392,0.07
5.394,0.065
5.396,0.05
5.398,0.035
5.4,0.02
5.402,0.01
5.404,0
5.406,-0.005
5.408,-0.01
5.41,-0.015
5.412,-0.015
5.414,-0.02
5.416,-0.025
5.418,-0.035
5.42,-0.045
5.422,-0.055
5.424,-0.065
5.426,-0.07
5.428,-0.07
5.43,-0.07
5.432,-0.065
5.434,-0.06
5.436,-0.055
5.438,-0.05
5.44,-0.045
5.442,-0.045
5.444,-0.045
5.446,-0.045
5.448,-0.045
5.45,-0.045
5.452,-0.05
5.454,-0.05
5.456,-0.05
5.458,-0.055
5.46,-0.055
5.462,-0.055
5.464,-0.06
5.466,-0.06
5.468,-0.06
5.47,-0.065
5.472,-0.065
5.474,-0.06
5.476,-0.06
5.478,-0.06
5.48,-0.055
5.482,-0.05
5.484,-0.05
5.486,-0.045
5.488,-0.045
5.49,-0.045
5.492,-0.045
5.494,-0.045
5.496,-0.045
5.498,-0.05
5.5,-0.05
5.502,-0.055
5.504,-0.06
5.506,-0.06
5.508,-0.065
5.51,-0.07
5.512,-0.07
5.514,-0.075
5.516,-0.07
5.518,-0.07
5.52,-0.06
5.522,-0.05
5.524,-0.04
5.526,-0.03
5.528,-0.02
5.53,-0.01
5.532,-0.005
5.534,-0.005
5.536,-0.01
5.538,-0.015
5.54,-0.025
5.542,-0.04
5.544,-0.045
5.546,-0.055
5.548,-0.055
5.55,-0.055
5.552,-0.055
5.554,-0.05
5.556,-0.05
5.558,-0.05
5.56,-0.055
5.562,-0.06
5.564,-0.07
5.566,-0.075
5.568,-0.085
5.57,-0.085
5.572,-0.085
5.574,-0.08
5.576,-0.07
5.578,-0.06
5.58,-0.055
5.582,-0.045
5.584,-0.045
5.586,-0.045
5.588,-0.05
5.59,-0.055
5.592,-0.06
5.594,-0.065
5.596,-0.065
5.598,-0.065
5.6,-0.065
5.602,-0.06
5.604,-0.055
5.606,-0.05
5.608,-0.04
5.61,-0.035
5.612,-0.035
5.614,-0.03
5.616,-0.025
5.618,-0.025
5.62,-0.02
5.622,-0.015
5.624,-0.015
5.626,-0.015
5.628,-0.015
5.63,-0.02
5.632,-0.025
5.634,-0.035
5.636,-0.045
5.638,-0.055
5.64,-0.065
5.642,-0.075
5.644,-0.08
5.646,-0.085
5.648,-0.085
5.65,-0.08
5.652,-0.08
5.654,-0.075
5.656,-0.075
5.658,-0.075
5.66,-0.075
5.662,-0.08
5.664,-0.08
5.666,-0.08
5.668,-0.075
5.67,-0.075
5.672,-0.07
5.674,-0.06
5.676,-0.055
5.678,-0.045
5.68,-0.04
5.682,-0.03
5.684,-0.025
5.686,-0.02
5.688,-0.02
5.69,-0.015
5.692,-0.015
5.694,-0.015
5.696,-0.02
5.698,-0.025
5.7,-0.03
5.702,-0.035
5.704,-0.045
5.706,-0.05
5.708,-0.05
5.71,-0.055
5.712,-0.055
5.714,-0.055
5.716,-0.06
5.718,-0.065
5.72,-0.07
5.722,-0.08
5.724,-0.09
5.726,-0.1
5.728,-0.105
5.73,-0.11
5.732,-0.11
5.734,-0.105
5.736,-0.095
5.738,-0.09
5.74,-0.085
5.742,-0.08
5.744,-0.085
5.746,-0.085
5.748,-0.09
5.75,-0.095
5.752,-0.095
5.754,-0.095
5.756,-0.09
5.758,-0.085
5.76,-0.08
5.762,-0.075
5.764,-0.075
5.766,-0.08
5.768,-0.09
5.77,-0.095
5.772,-0.105
5.774,-0.11
5.776,-0.11
5.778,-0.11
5.78,-0.11
5.782,-0.11
5.784,-0.12
5.786,-0.135
5.788,-0.155
5.79,-0.18
5.792,-0.205
5.794,-0.22
5.796,-0.22
5.798,-0.19
5.8,-0.135
5.802,-0.05
5.804,0.06
5.806,0.195
5.808,0.34
5.81,0.495
5.812,0.65
5.814,0.79
5.816,0.92
5.818,1.03
5.82,1.115
5.822,1.17
5.824,1.19
5.826,1.175
5.828,1.125
5.83,1.03
5.832,0.905
5.834,0.755
5.836,0.595
5.838,0.43
5.84,0.285
5.842,0.165
5.844,0.075
5.846,0.02
5.848,-0.005
5.85,-0.005
5.852,0.005
5.854,0.025
5.856,0.045
5.858,0.055
5.86,0.06
5.862,0.055
5.864,0.05
5.866,0.04
5.868,0.035
5.87,0.03
5.872,0.02
5.874,0.015
5.876,0.005
5.878,-0.005
5.88,-0.015
5.882,-0.03
5.884,-0.04
5.886,-0.05
5.888,-0.05
5.89,-0.055
5.892,-0.05
5.894,-0.045
5.896,-0.04
5.898,-0.035
5.9,-0.035
5.902,-0.04
5.904,-0.045
5.906,-0.055
5.908,-0.065
5.91,-0.08
5.912,-0.09
5.914,-0.105
5.916,-0.115
5.918,-0.13
5.92,-0.14
5.922,-0.145
5.924,-0.155
5.926,-0.16
5.928,-0.165
5.93,-0.165
5.932,-0.17
5.934,-0.175
5.936,-0.175
5.938,-0.18
5.94,-0.185
5.942,-0.185
5.944,-0.18
5.946,-0.18
5.948,-0.17
5.95,-0.16
5.952,-0.15
5.954,-0.14
5.956,-0.135
5.958,-0.125
5.96,-0.125
5.962,-0.12
5.964,-0.12
5.966,-0.12
5.968,-0.115
5.97,-0.11
5.972,-0.11
5.974,-0.105
5.976,-0.105
5.978,-0.11
5.98,-0.115
5.982,-0.12
5.984,-0.125
5.986,-0.13
5.988,-0.125
5.99,-0.12
5.992,-0.11
5.994,-0.095
5.996,-0.08
5.998,-0.065
6,-0.05
6.002,-0.045
6.004,-0.045
6.006,-0.05
6.008,-0.055
6.01,-0.065
6.012,-0.07
6.014,-0.075
6.016,-0.075
6.018,-0.075
6.02,-0.065
6.022,-0.055
6.024,-0.04
6.026,-0.03
6.028,-0.015
6.03,-0.005
6.032,0.005
6.034,0.01
6.036,0.015
6.038,0.02
6.04,0.025
6.042,0.025
6.044,0.03
6.046,0.03
6.048,0.035
6.05,0.045
6.052,0.05
6.054,0.06
6.056,0.065
6.058,0.075
6.06,0.075
6.062,0.075
6.064,0.075
6.066,0.065
6.068,0.055
6.07,0.045
6.072,0.04
6.074,0.03
6.076,0.025
6.078,0.025
6.08,0.03
6.082,0.03
6.084,0.035
6.086,0.035
6.088,0.03
6.09,0.025
6.092,0.015
6.094,0.005
6.096,-0.01
6.098,-0.02
6.1,-0.03
6.102,-0.035
6.104,-0.045
6.106,-0.045
6.108,-0.05
6.11,-0.05
6.112,-0.05
6.114,-0.055
6.116,-0.055
6.118,-0.06
6.12,-0.06
6.122,-0.065
6.124,-0.065
6.126,-0.065
6.128,-0.065
6.13,-0.065
6.132,-0.06
6.134,-0.06
6.136,-0.06
6.138,-0.055
6.14,-0.055
6.142,-0.055
6.144,-0.055
6.146,-0.055
6.148,-0.055
6.15,-0.06
6.152,-0.06
6.154,-0.06
6.156,-0.06
6.158,-0.065
6.16,-0.065
6.162,-0.065
6.164,-0.07
6.166,-0.07
6.168,-0.075
6.17,-0.075
6.172,-0.08
6.174,-0.08
6.176,-0.08
6.178,-0.085
6.18,-0.085
6.182,-0.085
6.184,-0.085
6.186,-0.09
6.188,-0.09
6.19,-0.09
6.192,-0.09
6.194,-0.09
6.196,-0.085
6.198,-0.08
6.2,-0.075
6.202,-0.07
6.204,-0.06
6.206,-0.055
6.208,-0.05
6.21,-0.05
6.212,-0.055
6.214,-0.06
6.216,-0.07
6.218,-0.08
6.22,-0.09
6.222,-0.095
6.224,-0.095
6.226,-0.09
6.228,-0.08
6.23,-0.07
6.232,-0.06
6.234,-0.055
6.236,-0.055
6.238,-0.055
6.24,-0.06
6.242,-0.07
6.244,-0.08
6.246,-0.085
6.248,-0.09
6.25,-0.085
6.252,-0.08
6.254,-0.07
6.256,-0.06
6.258,-0.05
6.26,-0.04
6.262,-0.04
6.264,-0.04
6.266,-0.045
6.268,-0.055
6.27,-0.07
6.272,-0.08
6.274,-0.085
6.276,-0.09
6.278,-0.085
6.28,-0.08
6.282,-0.07
6.284,-0.06
6.286,-0.05
6.288,-0.04
6.29,-0.03
6.292,-0.025
6.294,-0.03
6.296,-0.035
6.298,-0.04
6.3,-0.05
6.302,-0.06
6.304,-0.065
6.306,-0.065
6.308,-0.065
6.31,-0.06
6.312,-0.055
6.314,-0.045
6.316,-0.04
6.318,-0.035
6.32,-0.03
6.322,-0.035
6.324,-0.035
6.326,-0.04
6.328,-0.045
6.33,-0.05
6.332,-0.05
6.334,-0.045
6.336,-0.045
6.338,-0.035
6.34,-0.03
6.342,-0.02
6.344,-0.015
6.346,-0.01
6.348,-0.01
6.35,-0.015
6.352,-0.015
6.354,-0.02
6.356,-0.025
6.358,-0.03
6.36,-0.03
6.362,-0.03
6.364,-0.03
6.366,-0.02
6.368,-0.015
6.37,-0.005
6.372,0.005
6.374,0.015
6.376,0.025
6.378,0.03
6.38,0.04
6.382,0.045
6.384,0.05
6.386,0.055
6.388,0.055
6.39,0.06
6.392,0.06
6.394,0.06
6.396,0.06
6.398,0.06
6.4,0.06
6.402,0.055
6.404,0.055
6.406,0.055
6.408,0.05
6.41,0.05
6.412,0.045
6.414,0.045
6.416,0.045
6.418,0.045
6.42,0.04
6.422,0.04
6.424,0.04
6.426,0.035
6.428,0.03
6.43,0.025
6.432,0.015
6.434,0.005
6.436,0
6.438,-0.01
6.44,-0.015
6.442,-0.015
6.444,-0.02
6.446,-0.015
6.448,-0.015
6.45,-0.01
6.452,-0.005
6.454,-0.005
6.456,-0.005
6.458,-0.01
6.46,-0.015
6.462,-0.02
6.464,-0.025
6.466,-0.035
6.468,-0.04
6.47,-0.045
6.472,-0.05
6.474,-0.05
6.476,-0.05
6.478,-0.045
6.48,-0.04
6.482,-0.03
6.484,-0.025
6.486,-0.015
6.488,-0.01
6.49,-0.015
6.492,-0.025
6.494,-0.04
6.496,-0.065
6.498,-0.095
6.5,-0.125
6.502,-0.15
6.504,-0.165
6.506,-0.16
6.508,-0.14
6.51,-0.09
6.512,-0.02
6.514,0.075
6.516,0.195
6.518,0.325
6.52,0.465
6.522,0.61
6.524,0.755
6.526,0.895
6.528,1.015
6.53,1.12
6.532,1.195
6.534,1.24
6.536,1.25
6.538,1.215
6.54,1.14
6.542,1.03
6.544,0.885
6.546,0.725
6.548,0.555
6.55,0.39
6.552,0.25
6.554,0.135
6.556,0.055
6.558,0.005
6.56,-0.015
6.562,-0.02
6.564,-0.01
6.566,0
6.568,0.005
6.57,0.005
6.572,-0.005
6.574,-0.025
6.576,-0.04
6.578,-0.06
6.58,-0.075
6.582,-0.08
6.584,-0.085
6.586,-0.08
6.588,-0.075
6.59,-0.07
6.592,-0.07
6.594,-0.065
6.596,-0.065
6.598,-0.06
6.6,-0.06
6.602,-0.065
6.604,-0.065
6.606,-0.065
6.608,-0.07
6.61,-0.075
6.612,-0.075
6.614,-0.08
6.616,-0.075
6.618,-0.07
6.62,-0.065
6.622,-0.055
6.624,-0.05
6.626,-0.05
6.628,-0.05
6.63,-0.06
6.632,-0.075
6.634,-0.09
6.636,-0.105
6.638,-0.115
6.64,-0.12
6.642,-0.115
6.644,-0.11
6.646,-0.095
6.648,-0.08
6.65,-0.07
6.652,-0.06
6.654,-0.06
6.656,-0.06
6.658,-0.065
6.66,-0.075
6.662,-0.08
6.664,-0.085
6.666,-0.085
6.668,-0.085
6.67,-0.08
6.672,-0.075
6.674,-0.07
6.676,-0.07
6.678,-0.065
6.68,-0.06
6.682,-0.06
6.684,-0.055
6.686,-0.05
6.688,-0.045
6.69,-0.04
6.692,-0.04
6.694,-0.045
6.696,-0.045
6.698,-0.05
6.7,-0.05
6.702,-0.05
6.704,-0.05
6.706,-0.045
6.708,-0.035
6.71,-0.03
6.712,-0.025
6.714,-0.02
6.716,-0.02
6.718,-0.02
6.72,-0.025
6.722,-0.03
6.724,-0.025
6.726,-0.025
6.728,-0.015
6.73,-0.005
6.732,0.005
6.734,0.015
6.736,0.02
6.738,0.02
6.74,0.015
6.742,0.01
6.744,0.005
6.746,0
6.748,0
6.75,0.005
6.752,0.02
6.754,0.04
6.756,0.06
6.758,0.075
6.76,0.095
6.762,0.105
6.764,0.11
6.766,0.11
6.768,0.1
6.77,0.095
6.772,0.085
6.774,0.075
6.776,0.065
6.778,0.055
6.78,0.05
6.782,0.045
6.784,0.045
6.786,0.04
6.788,0.04
6.79,0.04
6.792,0.04
6.794,0.045
6.796,0.045
6.798,0.04
6.8,0.04
6.802,0.03
6.804,0.02
6.806,0.005
6.808,-0.01
6.81,-0.025
6.812,-0.035
6.814,-0.045
6.816,-0.055
6.818,-0.055
6.82,-0.055
6.822,-0.05
6.824,-0.045
6.826,-0.045
6.828,-0.05
6.83,-0.055
6.832,-0.06
6.834,-0.07
6.836,-0.075
6.838,-0.08
6.84,-0.08
6.842,-0.075
6.844,-0.065
6.846,-0.055
6.848,-0.045
6.85,-0.04
6.852,-0.035
6.854,-0.04
6.856,-0.05
6.858,-0.065
6.86,-0.075
6.862,-0.09
6.864,-0.095
6.866,-0.095
6.868,-0.09
6.87,-0.08
6.872,-0.065
6.874,-0.05
6.876,-0.04
6.878,-0.035
6.88,-0.035
6.882,-0.04
6.884,-0.05
6.886,-0.06
6.888,-0.065
6.89,-0.075
6.892,-0.075
6.894,-0.07
6.896,-0.065
6.898,-0.055
6.9,-0.05
6.902,-0.05
6.904,-0.05
6.906,-0.06
6.908,-0.07
6.91,-0.08
6.912,-0.09
6.914,-0.1
6.916,-0.1
6.918,-0.095
6.92,-0.085
6.922,-0.075
6.924,-0.065
6.926,-0.055
6.928,-0.055
6.93,-0.055
6.932,-0.065
6.934,-0.07
6.936,-0.075
6.938,-0.08
6.94,-0.075
6.942,-0.07
6.944,-0.06
6.946,-0.055
6.948,-0.045
6.95,-0.04
6.952,-0.045
6.954,-0.05
6.956,-0.055
6.958,-0.065
6.96,-0.07
6.962,-0.075
6.964,-0.075
6.966,-0.07
6.968,-0.06
6.97,-0.05
6.972,-0.045
6.974,-0.04
6.976,-0.035
6.978,-0.035
6.98,-0.04
6.982,-0.04
6.984,-0.045
6.986,-0.05
6.988,-0.055
6.99,-0.06
6.992,-0.065
6.994,-0.07
6.996,-0.08
6.998,-0.085
7,-0.09
7.002,-0.09
7.004,-0.085
7.006,-0.08
7.008,-0.07
7.01,-0.06
7.012,-0.055
7.014,-0.05
7.016,-0.045
7.018,-0.05
7.02,-0.055
7.022,-0.06
7.024,-0.07
7.026,-0.07
7.028,-0.07
7.03,-0.065
7.032,-0.06
7.034,-0.055
7.036,-0.045
7.038,-0.045
7.04,-0.045
7.042,-0.045
7.044,-0.05
7.046,-0.06
7.048,-0.065
7.05,-0.07
7.052,-0.07
7.054,-0.07
7.056,-0.065
7.058,-0.06
7.06,-0.055
7.062,-0.055
7.064,-0.05
7.066,-0.05
7.068,-0.045
7.07,-0.04
7.072,-0.035
7.074,-0.03
7.076,-0.025
7.078,-0.025
7.08,-0.02
7.082,-0.02
7.084,-0.025
7.086,-0.035
7.088,-0.04
7.09,-0.045
7.092,-0.05
7.094,-0.05
7.096,-0.045
7.098,-0.035
7.1,-0.025
7.102,-0.02
7.104,-0.015
7.106,-0.015
7.108,-0.015
7.11,-0.025
7.112,-0.035
7.114,-0.045
7.116,-0.055
7.118,-0.06
7.12,-0.055
7.122,-0.05
7.124,-0.04
7.126,-0.03
7.128,-0.025
7.13,-0.025
7.132,-0.03
7.134,-0.045
7.136,-0.06
7.138,-0.08
7.14,-0.095
7.142,-0.105
7.144,-0.105
7.146,-0.1
7.148,-0.09
7.15,-0.07
7.152,-0.05
7.154,-0.035
7.156,-0.025
7.158,-0.025
7.16,-0.03
7.162,-0.04
7.164,-0.06
7.166,-0.08
7.168,-0.095
7.17,-0.105
7.172,-0.105
7.174,-0.1
7.176,-0.085
7.178,-0.07
7.18,-0.055
7.182,-0.045
7.184,-0.04
7.186,-0.045
7.188,-0.065
7.19,-0.09
7.192,-0.12
7.194,-0.15
7.196,-0.175
7.198,-0.19
7.2,-0.185
7.202,-0.16
7.204,-0.115
7.206,-0.055
7.208,0.025
7.21,0.12
7.212,0.225
7.214,0.335
7.216,0.455
7.218,0.57
7.22,0.69
7.222,0.8
7.224,0.9
7.226,0.985
7.228,1.04
7.23,1.06
7.232,1.04
7.234,0.975
7.236,0.875
7.238,0.74
7.24,0.59
7.242,0.43
7.244,0.285
7.246,0.155
7.248,0.055
7.25,-0.01
7.252,-0.045
7.254,-0.06
7.256,-0.06
7.258,-0.055
7.26,-0.05
7.262,-0.055
7.264,-0.065
7.266,-0.075
7.268,-0.09
7.27,-0.105
7.272,-0.11
7.274,-0.11
7.276,-0.105
7.278,-0.095
7.28,-0.085
7.282,-0.08
7.284,-0.08
7.286,-0.08
7.288,-0.09
7.29,-0.095
7.292,-0.1
7.294,-0.105
7.296,-0.105
7.298,-0.105
7.3,-0.105
7.302,-0.1
7.304,-0.1
7.306,-0.105
7.308,-0.105
7.31,-0.105
7.312,-0.105
7.314,-0.1
7.316,-0.09
7.318,-0.085
7.32,-0.075
7.322,-0.07
7.324,-0.065
7.326,-0.07
7.328,-0.075
7.33,-0.08
7.332,-0.09
7.334,-0.095
7.336,-0.1
7.338,-0.1
7.34,-0.095
7.342,-0.085
7.344,-0.075
7.346,-0.07
7.348,-0.065
7.35,-0.065
7.352,-0.065
7.354,-0.07
7.356,-0.08
7.358,-0.085
7.36,-0.09
7.362,-0.09
7.364,-0.085
7.366,-0.08
7.368,-0.075
7.37,-0.07
7.372,-0.07
7.374,-0.065
7.376,-0.07
7.378,-0.07
7.38,-0.075
7.382,-0.08
7.384,-0.085
7.386,-0.085
7.388,-0.085
7.39,-0.075
7.392,-0.065
7.394,-0.055
7.396,-0.04
7.398,-0.03
7.4,-0.02
7.402,-0.015
7.404,-0.01
7.406,-0.01
7.408,-0.01
7.41,-0.015
7.412,-0.015
7.414,-0.01
7.416,0
7.418,0.01
7.42,0.025
7.422,0.04
7.424,0.05
7.426,0.055
7.428,0.055
7.43,0.05
7.432,0.04
7.434,0.03
7.436,0.025
7.438,0.02
7.44,0.03
7.442,0.04
7.444,0.06
7.446,0.085
7.448,0.105
7.45,0.12
7.452,0.13
7.454,0.125
7.456,0.12
7.458,0.105
7.46,0.085
7.462,0.075
7.464,0.06
7.466,0.06
7.468,0.06
7.47,0.065
7.472,0.07
7.474,0.08
7.476,0.085
7.478,0.085
7.48,0.085
7.482,0.08
7.484,0.075
7.486,0.065
7.488,0.06
7.49,0.055
7.492,0.045
7.494,0.04
7.496,0.035
7.498,0.03
7.5,0.025
7.502,0.025
7.504,0.025
7.506,0.03
7.508,0.035
7.51,0.035
7.512,0.035
7.514,0.03
7.516,0.015
7.518,0
7.52,-0.025
7.522,-0.045
7.524,-0.065
7.526,-0.08
7.528,-0.09
7.53,-0.09
7.532,-0.085
7.534,-0.075
7.536,-0.06
7.538,-0.05
7.54,-0.045
7.542,-0.04
7.544,-0.045
7.546,-0.055
7.548,-0.065
7.55,-0.075
7.552,-0.08
7.554,-0.08
7.556,-0.08
7.558,-0.075
7.56,-0.065
7.562,-0.06
7.564,-0.05
7.566,-0.045
7.568,-0.045
7.57,-0.045
7.572,-0.045
7.574,-0.05
7.576,-0.05
7.578,-0.055
7.58,-0.055
7.582,-0.06
7.584,-0.06
7.586,-0.06
7.588,-0.06
7.59,-0.06
7.592,-0.06
7.594,-0.065
7.596,-0.065
7.598,-0.065
7.6,-0.065
7.602,-0.07
7.604,-0.07
7.606,-0.075
7.608,-0.08
7.61,-0.085
7.612,-0.09
7.614,-0.09
7.616,-0.095
7.618,-0.09
7.62,-0.09
7.622,-0.08
7.624,-0.075
7.626,-0.065
7.628,-0.055
7.63,-0.05
7.632,-0.05
7.634,-0.05
7.636,-0.055
7.638,-0.06
7.64,-0.065
7.642,-0.07
7.644,-0.07
7.646,-0.075
7.648,-0.07
7.65,-0.065
7.652,-0.06
7.654,-0.05
7.656,-0.04
7.658,-0.035
7.66,-0.03
7.662,-0.03
7.664,-0.03
7.666,-0.03
7.668,-0.035
7.67,-0.035
7.672,-0.04
7.674,-0.04
7.676,-0.04
7.678,-0.04
7.68,-0.035
7.682,-0.03
7.684,-0.03
7.686,-0.025
7.688,-0.03
7.69,-0.035
7.692,-0.04
7.694,-0.05
7.696,-0.06
7.698,-0.07
7.7,-0.075
7.702,-0.08
7.704,-0.075
7.706,-0.065
7.708,-0.055
7.71,-0.04
7.712,-0.025
7.714,-0.015
7.716,-0.01
7.718,-0.01
7.72,-0.02
7.722,-0.035
7.724,-0.05
7.726,-0.065
7.728,-0.08
7.73,-0.085
7.732,-0.085
7.734,-0.075
7.736,-0.065
7.738,-0.045
7.74,-0.025
7.742,-0.01
7.744,0
7.746,0.005
7.748,0
7.75,-0.01
7.752,-0.02
7.754,-0.03
7.756,-0.035
7.758,-0.035
7.76,-0.03
7.762,-0.015
7.764,0
7.766,0.015
7.768,0.025
7.77,0.035
7.772,0.035
7.774,0.025
7.776,0.015
7.778,-0.005
7.78,-0.025
7.782,-0.04
7.784,-0.055
7.786,-0.06
7.788,-0.06
7.79,-0.055
7.792,-0.05
7.794,-0.04
7.796,-0.03
7.798,-0.03
7.8,-0.03
7.802,-0.03
7.804,-0.04
7.806,-0.045
7.808,-0.055
7.81,-0.06
7.812,-0.06
7.814,-0.06
7.816,-0.06
7.818,-0.06
7.82,-0.065
7.822,-0.065
7.824,-0.07
7.826,-0.08
7.828,-0.085
7.83,-0.085
7.832,-0.085
7.834,-0.085
7.836,-0.075
7.838,-0.065
7.84,-0.05
7.842,-0.04
7.844,-0.025
7.846,-0.015
7.848,-0.01
7.85,-0.015
7.852,-0.02
7.854,-0.03
7.856,-0.05
7.858,-0.075
7.86,-0.105
7.862,-0.135
7.864,-0.165
7.866,-0.185
7.868,-0.195
7.87,-0.185
7.872,-0.16
7.874,-0.11
7.876,-0.035
7.878,0.065
7.88,0.175
7.882,0.305
7.884,0.445
7.886,0.585
7.888,0.725
7.89,0.855
7.892,0.97
7.894,1.065
7.896,1.135
7.898,1.165
7.9,1.16
7.902,1.115
7.904,1.03
7.906,0.905
7.908,0.76
7.91,0.595
7.912,0.435
7.914,0.285
7.916,0.16
7.918,0.065
7.92,0.005
7.922,-0.03
7.924,-0.035
7.926,-0.03
7.928,-0.02
7.93,-0.01
7.932,-0.005
7.934,-0.015
7.936,-0.025
7.938,-0.045
7.94,-0.065
7.942,-0.085
7.944,-0.095
7.946,-0.105
7.948,-0.105
7.95,-0.1
7.952,-0.095
7.954,-0.09
7.956,-0.085
7.958,-0.08
7.96,-0.075
7.962,-0.075
7.964,-0.075
7.966,-0.08
7.968,-0.08
7.97,-0.085
7.972,-0.095
7.974,-0.1
7.976,-0.105
7.978,-0.105
7.98,-0.105
7.982,-0.1
7.984,-0.095
7.986,-0.09
7.988,-0.08
7.99,-0.075
7.992,-0.07
7.994,-0.07
7.996,-0.07
7.998,-0.075
8,-0.08
8.002,-0.09
8.004,-0.095
8.006,-0.1
8.008,-0.105
8.01,-0.105
8.012,-0.105
8.014,-0.105
8.016,-0.1
8.018,-0.09
8.02,-0.085
8.022,-0.075
8.024,-0.065
8.026,-0.055
8.028,-0.05
8.03,-0.045
8.032,-0.045
8.034,-0.045
8.036,-0.055
8.038,-0.06
8.04,-0.07
8.042,-0.08
8.044,-0.085
8.046,-0.085
8.048,-0.08
8.05,-0.07
8.052,-0.06
8.054,-0.05
8.056,-0.04
8.058,-0.035
8.06,-0.04
8.062,-0.045
8.064,-0.05
8.066,-0.06
8.068,-0.06
8.07,-0.06
8.072,-0.05
8.074,-0.04
8.076,-0.02
8.078,-0.005
8.08,0.01
8.082,0.015
8.084,0.02
8.086,0.015
8.088,0.005
8.09,-0.005
8.092,-0.01
8.094,-0.015
8.096,-0.01
8.098,0
8.1,0.01
8.102,0.025
8.104,0.04
8.106,0.05
8.108,0.055
8.11,0.055
8.112,0.06
8.114,0.06
8.116,0.06
8.118,0.065
8.12,0.07
8.122,0.08
8.124,0.085
8.126,0.085
8.128,0.085
8.13,0.085
8.132,0.08
8.134,0.075
8.136,0.075
8.138,0.075
8.14,0.08
8.142,0.085
8.144,0.095
8.146,0.095
8.148,0.095
8.15,0.09
8.152,0.075
8.154,0.065
8.156,0.05
8.158,0.035
8.16,0.03
8.162,0.025
8.164,0.03
8.166,0.035
8.168,0.04
8.17,0.04
8.172,0.04
8.174,0.03
8.176,0.015
8.178,0
8.18,-0.02
8.182,-0.04
8.184,-0.055
8.186,-0.065
8.188,-0.07
8.19,-0.07
8.192,-0.065
8.194,-0.06
8.196,-0.05
8.198,-0.045
8.2,-0.035
8.202,-0.03
8.204,-0.03
8.206,-0.035
8.208,-0.04
8.21,-0.045
8.212,-0.05
8.214,-0.06
8.216,-0.065
8.218,-0.065
8.22,-0.065
8.222,-0.065
8.224,-0.06
8.226,-0.06
8.228,-0.055
8.23,-0.055
8.232,-0.055
8.234,-0.06
8.236,-0.06
8.238,-0.06
8.24,-0.055
8.242,-0.05
8.244,-0.045
8.246,-0.04
8.248,-0.035
8.25,-0.03
8.252,-0.03
8.254,-0.035
8.256,-0.04
8.258,-0.045
8.26,-0.055
8.262,-0.06
8.264,-0.065
8.266,-0.07
8.268,-0.075
8.27,-0.08
8.272,-0.085
8.274,-0.085
8.276,-0.09
8.278,-0.09
8.28,-0.09
8.282,-0.08
8.284,-0.07
8.286,-0.06
8.288,-0.045
8.29,-0.035
8.292,-0.025
8.294,-0.025
8.296,-0.03
8.298,-0.04
8.3,-0.055
8.302,-0.07
8.304,-0.085
8.306,-0.095
8.308,-0.095
8.31,-0.09
8.312,-0.085
8.314,-0.07
8.316,-0.055
8.318,-0.04
8.32,-0.03
8.322,-0.025
8.324,-0.02
8.326,-0.025
8.328,-0.03
8.33,-0.04
8.332,-0.05
8.334,-0.055
8.336,-0.06
8.338,-0.06
8.34,-0.055
8.342,-0.05
8.344,-0.04
8.346,-0.035
8.348,-0.03
8.35,-0.03
8.352,-0.03
8.354,-0.035
8.356,-0.04
8.358,-0.045
8.36,-0.045
8.362,-0.045
8.364,-0.04
8.366,-0.035
8.368,-0.025
8.37,-0.02
8.372,-0.02
8.374,-0.025
8.376,-0.03
8.378,-0.04
8.38,-0.045
8.382,-0.05
8.384,-0.055
8.386,-0.05
8.388,-0.045
8.39,-0.035
8.392,-0.03
8.394,-0.03
8.396,-0.04
8.398,-0.05
8.4,-0.06
8.402,-0.075
8.404,-0.08
8.406,-0.08
8.408,-0.075
8.41,-0.06
8.412,-0.04
8.414,-0.02
8.416,-0.005
8.418,0.005
8.42,0.005
8.422,-0.005
8.424,-0.02
8.426,-0.04
8.428,-0.05
8.43,-0.06
8.432,-0.06
8.434,-0.05
8.436,-0.035
8.438,-0.015
8.44,0
8.442,0.01
8.444,0.015
8.446,0.015
8.448,0.01
8.45,0.005
8.452,0
8.454,-0.005
8.456,0
8.458,0.005
8.46,0.01
8.462,0.02
8.464,0.02
8.466,0.015
8.468,0.01
8.47,-0.005
8.472,-0.015
8.474,-0.03
8.476,-0.04
8.478,-0.045
8.48,-0.045
8.482,-0.045
8.484,-0.04
8.486,-0.04
8.488,-0.04
8.49,-0.04
8.492,-0.045
8.494,-0.05
8.496,-0.055
8.498,-0.06
8.5,-0.06
8.502,-0.065
8.504,-0.065
8.506,-0.065
8.508,-0.065
8.51,-0.065
8.512,-0.06
8.514,-0.06
8.516,-0.06
8.518,-0.055
8.52,-0.055
8.522,-0.05
8.524,-0.05
8.526,-0.05
8.528,-0.055
8.53,-0.055
8.532,-0.06
8.534,-0.065
8.536,-0.065
8.538,-0.07
8.54,-0.07
8.542,-0.075
8.544,-0.08
8.546,-0.095
8.548,-0.12
8.55,-0.145
8.552,-0.17
8.554,-0.195
8.556,-0.21
8.558,-0.205
8.56,-0.17
8.562,-0.11
8.564,-0.02
8.566,0.095
8.568,0.235
8.57,0.385
8.572,0.545
8.574,0.705
8.576,0.85
8.578,0.98
8.58,1.09
8.582,1.17
8.584,1.215
8.586,1.225
8.588,1.195
8.59,1.13
8.592,1.025
8.594,0.89
8.596,0.74
8.598,0.575
8.6,0.42
8.602,0.28
8.604,0.165
8.606,0.08
8.608,0.02
8.61,-0.015
8.612,-0.03
8.614,-0.035
8.616,-0.035
8.618,-0.04
8.62,-0.045
8.622,-0.055
8.624,-0.065
8.626,-0.075
8.628,-0.08
8.63,-0.085
8.632,-0.09
8.634,-0.095
8.636,-0.095
8.638,-0.1
8.64,-0.11
8.642,-0.115
8.644,-0.12
8.646,-0.12
8.648,-0.12
8.65,-0.11
8.652,-0.095
8.654,-0.08
8.656,-0.07
8.658,-0.06
8.66,-0.06
8.662,-0.065
8.664,-0.075
8.666,-0.09
8.668,-0.105
8.67,-0.115
8.672,-0.125
8.674,-0.125
8.676,-0.12
8.678,-0.115
8.68,-0.105
8.682,-0.09
8.684,-0.085
8.686,-0.08
8.688,-0.08
8.69,-0.085
8.692,-0.095
8.694,-0.105
8.696,-0.115
8.698,-0.12
8.7,-0.125
8.702,-0.12
8.704,-0.115
8.706,-0.11
8.708,-0.1
8.71,-0.09
8.712,-0.08
8.714,-0.075
8.716,-0.07
8.718,-0.075
8.72,-0.08
8.722,-0.085
8.724,-0.09
8.726,-0.095
8.728,-0.1
8.73,-0.1
8.732,-0.095
8.734,-0.09
8.736,-0.08
8.738,-0.07
8.74,-0.06
8.742,-0.05
8.744,-0.04
8.746,-0.035
8.748,-0.035
8.75,-0.04
8.752,-0.045
8.754,-0.05
8.756,-0.055
8.758,-0.055
8.76,-0.055
8.762,-0.045
8.764,-0.035
8.766,-0.02
8.768,-0.01
8.77,0.005
8.772,0.01
8.774,0.015
8.776,0.015
8.778,0.01
8.78,0.005
8.782,-0.005
8.784,-0.01
8.786,-0.01
8.788,-0.01
8.79,-0.005
8.792,0.005
8.794,0.015
8.796,0.025
8.798,0.04
8.8,0.05
8.802,0.055
8.804,0.06
8.806,0.06
8.808,0.055
8.81,0.055
8.812,0.05
8.814,0.045
8.816,0.045
8.818,0.045
8.82,0.05
8.822,0.055
8.824,0.06
8.826,0.065
8.828,0.07
8.83,0.075
8.832,0.07
8.834,0.07
8.836,0.06
8.838,0.055
8.84,0.045
8.842,0.04
8.844,0.04
8.846,0.04
8.848,0.04
8.85,0.045
8.852,0.045
8.854,0.04
8.856,0.035
8.858,0.025
8.86,0.01
8.862,-0.005
8.864,-0.025
8.866,-0.045
8.868,-0.06
8.87,-0.07
8.872,-0.075
8.874,-0.075
8.876,-0.07
8.878,-0.06
8.88,-0.05
8.882,-0.045
8.884,-0.04
8.886,-0.035
8.888,-0.04
8.89,-0.045
8.892,-0.06
8.894,-0.07
8.896,-0.08
8.898,-0.09
8.9,-0.095
8.902,-0.095
8.904,-0.095
8.906,-0.085
8.908,-0.08
8.91,-0.07
8.912,-0.065
8.914,-0.06
8.916,-0.06
8.918,-0.065
8.92,-0.07
8.922,-0.075
8.924,-0.085
8.926,-0.09
8.928,-0.095
8.93,-0.095
8.932,-0.09
8.934,-0.08
8.936,-0.07
8.938,-0.055
8.94,-0.045
8.942,-0.035
8.944,-0.035
8.946,-0.035
8.948,-0.04
8.95,-0.05
8.952,-0.065
8.954,-0.075
8.956,-0.08
8.958,-0.085
8.96,-0.08
8.962,-0.07
8.964,-0.055
8.966,-0.045
8.968,-0.035
8.97,-0.035
8.972,-0.04
8.974,-0.055
8.976,-0.075
8.978,-0.09
8.98,-0.105
8.982,-0.11
8.984,-0.105
8.986,-0.095
8.988,-0.075
8.99,-0.055
8.992,-0.04
8.994,-0.03
8.996,-0.03
8.998,-0.04
9,-0.055
9.002,-0.075
9.004,-0.09
9.006,-0.1
9.008,-0.1
9.01,-0.09
9.012,-0.075
9.014,-0.055
9.016,-0.04
9.018,-0.03
9.02,-0.025
9.022,-0.035
9.024,-0.05
9.026,-0.065
9.028,-0.085
9.03,-0.1
9.032,-0.105
9.034,-0.1
9.036,-0.09
9.038,-0.075
9.04,-0.06
9.042,-0.045
9.044,-0.03
9.046,-0.025
9.048,-0.025
9.05,-0.035
9.052,-0.045
9.054,-0.055
9.056,-0.065
9.058,-0.07
9.06,-0.075
9.062,-0.075
9.064,-0.07
9.066,-0.06
9.068,-0.045
9.07,-0.035
9.072,-0.025
9.074,-0.015
9.076,-0.01
9.078,-0.01
9.08,-0.015
9.082,-0.03
9.084,-0.045
9.086,-0.06
9.088,-0.075
9.09,-0.085
9.092,-0.085
9.094,-0.085
9.096,-0.08
9.098,-0.07
9.1,-0.06
9.102,-0.05
9.104,-0.045
9.106,-0.045
9.108,-0.05
9.11,-0.055
9.112,-0.065
9.114,-0.07
9.116,-0.075
9.118,-0.07
9.12,-0.065
9.122,-0.055
9.124,-0.04
9.126,-0.035
9.128,-0.03
9.13,-0.03
9.132,-0.035
9.134,-0.045
9.136,-0.055
9.138,-0.065
9.14,-0.07
9.142,-0.07
9.144,-0.065
9.146,-0.05
9.148,-0.035
9.15,-0.015
9.152,0.005
9.154,0.02
9.156,0.03
9.158,0.035
9.16,0.03
9.162,0.02
9.164,0.005
9.166,-0.01
9.168,-0.025
9.17,-0.035
9.172,-0.045
9.174,-0.05
9.176,-0.055
9.178,-0.055
9.18,-0.05
9.182,-0.05
9.184,-0.05
9.186,-0.05
9.188,-0.05
9.19,-0.055
9.192,-0.06
9.194,-0.065
9.196,-0.07
9.198,-0.075
9.2,-0.08
9.202,-0.08
9.204,-0.08
9.206,-0.08
9.208,-0.07
9.21,-0.065
9.212,-0.055
9.214,-0.05
9.216,-0.04
9.218,-0.035
9.22,-0.04
9.222,-0.04
9.224,-0.05
9.226,-0.065
9.228,-0.075
9.23,-0.085
9.232,-0.09
9.234,-0.09
9.236,-0.085
9.238,-0.075
9.24,-0.07
9.242,-0.065
9.244,-0.075
9.246,-0.09
9.248,-0.12
9.25,-0.155
9.252,-0.19
9.254,-0.22
9.256,-0.23
9.258,-0.215
9.26,-0.175
9.262,-0.105
9.264,-0.01
9.266,0.105
9.268,0.235
9.27,0.37
9.272,0.505
9.274,0.64
9.276,0.765
9.278,0.88
9.28,0.985
9.282,1.07
9.284,1.125
9.286,1.155
9.288,1.145
9.29,1.095
9.292,1
9.294,0.87
9.296,0.715
9.298,0.545
9.3,0.38
9.302,0.23
9.304,0.11
9.306,0.025
9.308,-0.03
9.31,-0.055
9.312,-0.055
9.314,-0.05
9.316,-0.04
9.318,-0.035
9.32,-0.04
9.322,-0.05
9.324,-0.06
9.326,-0.075
9.328,-0.085
9.33,-0.09
9.332,-0.09
9.334,-0.085
9.336,-0.08
9.338,-0.08
9.34,-0.08
9.342,-0.085
9.344,-0.095
9.346,-0.1
9.348,-0.105
9.35,-0.105
9.352,-0.1
9.354,-0.09
9.356,-0.075
9.358,-0.07
9.36,-0.065
9.362,-0.065
9.364,-0.07
9.366,-0.075
9.368,-0.085
9.37,-0.09
9.372,-0.095
9.374,-0.09
9.376,-0.08
9.378,-0.07
9.38,-0.06
9.382,-0.055
9.384,-0.055
9.386,-0.06
9.388,-0.07
9.39,-0.08
9.392,-0.09
9.394,-0.1
9.396,-0.105
9.398,-0.1
9.4,-0.095
9.402,-0.085
9.404,-0.075
9.406,-0.065
9.408,-0.06
9.41,-0.06
9.412,-0.06
9.414,-0.065
9.416,-0.07
9.418,-0.075
9.42,-0.075
9.422,-0.075
9.424,-0.07
9.426,-0.07
9.428,-0.07
9.43,-0.07
9.432,-0.075
9.434,-0.075
9.436,-0.08
9.438,-0.08
9.44,-0.08
9.442,-0.075
9.444,-0.07
9.446,-0.055
9.448,-0.045
9.45,-0.035
9.452,-0.025
9.454,-0.015
9.456,-0.01
9.458,-0.01
9.46,-0.01
9.462,-0.005
9.464,-0.005
9.466,0
9.468,0.005
9.47,0.01
9.472,0.015
9.474,0.015
9.476,0.015
9.478,0.01
9.48,0.005
9.482,0
9.484,-0.005
9.486,-0.005
9.488,0
9.49,0.005
9.492,0.02
9.494,0.035
9.496,0.05
9.498,0.06
9.5,0.07
9.502,0.075
9.504,0.08
9.506,0.08
9.508,0.08
9.51,0.08
9.512,0.075
9.514,0.075
9.516,0.075
9.518,0.075
9.52,0.08
9.522,0.08
9.524,0.08
9.526,0.075
9.528,0.075
9.53,0.07
9.532,0.065
9.534,0.06
9.536,0.055
9.538,0.05
9.54,0.045
9.542,0.045
9.544,0.045
9.546,0.045
9.548,0.05
9.55,0.055
9.552,0.06
9.554,0.06
9.556,0.06
9.558,0.055
9.56,0.045
9.562,0.035
9.564,0.02
9.566,0.005
9.568,-0.01
9.57,-0.025
9.572,-0.035
9.574,-0.04
9.576,-0.045
9.578,-0.045
9.58,-0.045
9.582,-0.04
9.584,-0.045
9.586,-0.045
9.588,-0.05
9.59,-0.06
9.592,-0.065
9.594,-0.075
9.596,-0.075
9.598,-0.075
9.6,-0.075
9.602,-0.07
9.604,-0.06
9.606,-0.055
9.608,-0.055
9.61,-0.055
9.612,-0.06
9.614,-0.065
9.616,-0.07
9.618,-0.075
9.62,-0.08
9.622,-0.08
9.624,-0.075
9.626,-0.07
9.628,-0.06
9.63,-0.05
9.632,-0.045
9.634,-0.035
9.636,-0.035
9.638,-0.035
9.64,-0.04
9.642,-0.05
9.644,-0.06
9.646,-0.065
9.648,-0.07
9.65,-0.07
9.652,-0.07
9.654,-0.06
9.656,-0.045
9.658,-0.035
9.66,-0.02
9.662,-0.015
9.664,-0.01
9.666,-0.01
9.668,-0.015
9.67,-0.025
9.672,-0.035
9.674,-0.045
9.676,-0.055
9.678,-0.055
9.68,-0.05
9.682,-0.045
9.684,-0.04
9.686,-0.03
9.688,-0.03
9.69,-0.03
9.692,-0.035
9.694,-0.045
9.696,-0.055
9.698,-0.06
9.7,-0.07
9.702,-0.07
9.704,-0.07
9.706,-0.065
9.708,-0.06
9.71,-0.055
9.712,-0.055
9.714,-0.055
9.716,-0.06
9.718,-0.065
9.72,-0.07
9.722,-0.075
9.724,-0.08
9.726,-0.075
9.728,-0.07
9.73,-0.06
9.732,-0.05
9.734,-0.04
9.736,-0.035
9.738,-0.03
9.74,-0.025
9.742,-0.025
9.744,-0.025
9.746,-0.025
9.748,-0.025
9.75,-0.025
9.752,-0.025
9.754,-0.025
9.756,-0.02
9.758,-0.02
9.76,-0.025
9.762,-0.03
9.764,-0.035
9.766,-0.045
9.768,-0.05
9.77,-0.055
9.772,-0.055
9.774,-0.055
9.776,-0.055
9.778,-0.05
9.78,-0.04
9.782,-0.035
9.784,-0.035
9.786,-0.035
9.788,-0.035
9.79,-0.04
9.792,-0.045
9.794,-0.045
9.796,-0.05
9.798,-0.05
9.8,-0.045
9.802,-0.045
9.804,-0.04
9.806,-0.04
9.808,-0.04
9.81,-0.04
9.812,-0.045
9.814,-0.045
9.816,-0.05
9.818,-0.05
9.82,-0.045
9.822,-0.035
9.824,-0.025
9.826,-0.01
9.828,0.005
9.83,0.015
9.832,0.025
9.834,0.035
9.836,0.035
9.838,0.03
9.84,0.025
9.842,0.015
9.844,0.005
9.846,0
9.848,-0.005
9.85,-0.01
9.852,-0.015
9.854,-0.015
9.856,-0.015
9.858,-0.02
9.86,-0.025
9.862,-0.03
9.864,-0.035
9.866,-0.045
9.868,-0.05
9.87,-0.055
9.872,-0.06
9.874,-0.055
9.876,-0.055
9.878,-0.05
9.88,-0.045
9.882,-0.045
9.884,-0.045
9.886,-0.045
9.888,-0.05
9.89,-0.055
9.892,-0.06
9.894,-0.065
9.896,-0.065
9.898,-0.065
9.9,-0.065
9.902,-0.06
9.904,-0.055
9.906,-0.055
9.908,-0.055
9.91,-0.055
9.912,-0.06
9.914,-0.065
9.916,-0.07
9.918,-0.075
9.92,-0.075
9.922,-0.075
9.924,-0.07
9.926,-0.07
9.928,-0.07
9.93,-0.08
9.932,-0.09
9.934,-0.11
9.936,-0.13
9.938,-0.15
9.94,-0.165
9.942,-0.17
9.944,-0.15
9.946,-0.115
9.948,-0.05
9.95,0.035
9.952,0.14
9.954,0.26
9.956,0.39
9.958,0.525
9.96,0.655
9.962,0.78
9.964,0.89
9.966,0.975
9.968,1.04
9.97,1.075
9.972,1.075
9.974,1.04
9.976,0.965
9.978,0.855
9.98,0.715
9.982,0.56
9.984,0.405
9.986,0.255
9.988,0.13
9.99,0.035
9.992,-0.03
9.994,-0.06
9.996,-0.07
9.998,-0.065
