0,-0.02
0.002,-0.005
0.004,0
0.006,0
0.008,-0.005
0.01,-0.025
0.012,-0.04
0.014,-0.06
0.016,-0.07
0.018,-0.07
0.02,-0.06
0.022,-0.045
0.024,-0.025
0.026,-0.005
0.028,0.005
0.03,0.005
0.032,0
0.034,-0.01
0.036,-0.02
0.038,-0.035
0.04,-0.04
0.042,-0.04
0.044,-0.035
0.046,-0.025
0.048,-0.015
0.05,-0.01
0.052,-0.005
0.054,-0.005
0.056,-0.01
0.058,-0.015
0.06,-0.025
0.062,-0.03
0.064,-0.035
0.066,-0.04
0.068,-0.035
0.07,-0.035
0.072,-0.03
0.074,-0.025
0.076,-0.02
0.078,-0.015
0.08,-0.015
0.082,-0.015
0.084,-0.015
0.086,-0.015
0.088,-0.01
0.09,-0.01
0.092,-0.01
0.094,-0.005
0.096,-0.005
0.098,-0.005
0.1,-0.005
0.102,-0.01
0.104,-0.015
0.106,-0.02
0.108,-0.02
0.11,-0.025
0.112,-0.025
0.114,-0.02
0.116,-0.015
0.118,-0.01
0.12,-0.01
0.122,-0.005
0.124,-0.01
0.126,-0.01
0.128,-0.015
0.13,-0.02
0.132,-0.025
0.134,-0.03
0.136,-0.03
0.138,-0.03
0.14,-0.025
0.142,-0.02
0.144,-0.02
0.146,-0.02
0.148,-0.02
0.15,-0.025
0.152,-0.025
0.154,-0.025
0.156,-0.025
0.158,-0.02
0.16,-0.02
0.162,-0.015
0.164,-0.01
0.166,-0.005
0.168,-0.005
0.17,-0.005
0.172,-0.005
0.174,-0.01
0.176,-0.01
0.178,-0.01
0.18,-0.01
0.182,-0.005
0.184,0
0.186,0
0.188,0.005
0.19,0.005
0.192,0.005
0.194,0
0.196,-0.005
0.198,-0.005
0.2,-0.01
0.202,-0.015
0.204,-0.015
0.206,-0.01
0.208,-0.005
0.21,0.005
0.212,0.015
0.214,0.025
0.216,0.035
0.218,0.045
0.22,0.05
0.222,0.05
0.224,0.045
0.226,0.04
0.228,0.03
0.23,0.02
0.232,0.01
0.234,0
0.236,-0.01
0.238,-0.015
0.24,-0.015
0.242,-0.015
0.244,-0.015
0.246,-0.015
0.248,-0.02
0.25,-0.02
0.252,-0.02
0.254,-0.025
0.256,-0.03
0.258,-0.03
0.26,-0.035
0.262,-0.03
0.264,-0.03
0.266,-0.03
0.268,-0.025
0.27,-0.02
0.272,-0.02
0.274,-0.015
0.276,-0.015
0.278,-0.015
0.28,-0.015
0.282,-0.015
0.284,-0.015
0.286,-0.015
0.288,-0.015
0.29,-0.015
0.292,-0.015
0.294,-0.015
0.296,-0.01
0.298,-0.01
0.3,-0.015
0.302,-0.015
0.304,-0.025
0.306,-0.03
0.308,-0.04
0.31,-0.045
0.312,-0.05
0.314,-0.045
0.316,-0.035
0.318,-0.005
0.32,0.04
0.322,0.105
0.324,0.185
0.326,0.28
0.328,0.38
0.33,0.475
0.332,0.565
0.334,0.63
0.336,0.665
0.338,0.67
0.34,0.635
0.342,0.565
0.344,0.465
0.346,0.345
0.348,0.21
0.35,0.08
0.352,-0.045
0.354,-0.15
0.356,-0.23
0.358,-0.285
0.36,-0.315
0.362,-0.32
0.364,-0.315
0.366,-0.295
0.368,-0.27
0.37,-0.24
0.372,-0.215
0.374,-0.195
0.376,-0.17
0.378,-0.145
0.38,-0.125
0.382,-0.1
0.384,-0.075
0.386,-0.05
0.388,-0.03
0.39,-0.01
0.392,0
0.394,0.005
0.396,0.01
0.398,0.005
0.4,0
0.402,-0.005
0.404,-0.01
0.406,-0.01
0.408,-0.005
0.41,0.005
0.412,0.015
0.414,0.025
0.416,0.03
0.418,0.035
0.42,0.035
0.422,0.035
0.424,0.03
0.426,0.025
0.428,0.02
0.43,0.02
0.432,0.02
0.434,0.025
0.436,0.025
0.438,0.03
0.44,0.03
0.442,0.03
0.444,0.03
0.446,0.025
0.448,0.02
0.45,0.02
0.452,0.02
0.454,0.02
0.456,0.025
0.458,0.03
0.46,0.04
0.462,0.045
0.464,0.05
0.466,0.05
0.468,0.055
0.47,0.055
0.472,0.06
0.474,0.06
0.476,0.065
0.478,0.07
0.48,0.075
0.482,0.08
0.484,0.085
0.486,0.085
0.488,0.085
0.49,0.085
0.492,0.085
0.494,0.085
0.496,0.09
0.498,0.095
0.5,0.105
0.502,0.12
0.504,0.13
0.506,0.145
0.508,0.155
0.51,0.16
0.512,0.16
0.514,0.165
0.516,0.165
0.518,0.165
0.52,0.17
0.522,0.175
0.524,0.185
0.526,0.195
0.528,0.21
0.53,0.22
0.532,0.23
0.534,0.24
0.536,0.245
0.538,0.245
0.54,0.245
0.542,0.245
0.544,0.245
0.546,0.245
0.548,0.245
0.55,0.245
0.552,0.245
0.554,0.245
0.556,0.245
0.558,0.245
0.56,0.24
0.562,0.235
0.564,0.23
0.566,0.225
0.568,0.215
0.57,0.205
0.572,0.195
0.574,0.18
0.576,0.165
0.578,0.145
0.58,0.125
0.582,0.105
0.584,0.085
0.586,0.065
0.588,0.05
0.59,0.035
0.592,0.02
0.594,0.01
0.596,0.005
0.598,-0.005
0.6,-0.015
0.602,-0.02
0.604,-0.03
0.606,-0.035
0.608,-0.04
0.61,-0.04
0.612,-0.045
0.614,-0.045
0.616,-0.05
0.618,-0.055
0.62,-0.06
0.622,-0.065
0.624,-0.07
0.626,-0.075
0.628,-0.075
0.63,-0.075
0.632,-0.07
0.634,-0.07
0.636,-0.065
0.638,-0.065
0.64,-0.07
0.642,-0.07
0.644,-0.08
0.646,-0.085
0.648,-0.09
0.65,-0.095
0.652,-0.095
0.654,-0.095
0.656,-0.095
0.658,-0.095
0.66,-0.095
0.662,-0.095
0.664,-0.095
0.666,-0.095
0.668,-0.095
0.67,-0.095
0.672,-0.095
0.674,-0.09
0.676,-0.085
0.678,-0.085
0.68,-0.085
0.682,-0.09
0.684,-0.095
0.686,-0.095
0.688,-0.1
0.69,-0.105
0.692,-0.1
0.694,-0.1
0.696,-0.095
0.698,-0.09
0.7,-0.085
0.702,-0.08
0.704,-0.08
0.706,-0.08
0.708,-0.085
0.71,-0.085
0.712,-0.085
0.714,-0.085
0.716,-0.085
0.718,-0.085
0.72,-0.08
0.722,-0.08
0.724,-0.08
0.726,-0.08
0.728,-0.08
0.73,-0.085
0.732,-0.085
0.734,-0.09
0.736,-0.09
0.738,-0.09
0.74,-0.085
0.742,-0.085
0.744,-0.085
0.746,-0.085
0.748,-0.08
0.75,-0.08
0.752,-0.08
0.754,-0.08
0.756,-0.08
0.758,-0.075
0.76,-0.075
0.762,-0.07
0.764,-0.07
0.766,-0.07
0.768,-0.07
0.77,-0.075
0.772,-0.08
0.774,-0.08
0.776,-0.085
0.778,-0.085
0.78,-0.08
0.782,-0.08
0.784,-0.075
0.786,-0.07
0.788,-0.065
0.79,-0.06
0.792,-0.06
0.794,-0.06
0.796,-0.065
0.798,-0.07
0.8,-0.075
0.802,-0.08
0.804,-0.08
0.806,-0.085
0.808,-0.085
0.81,-0.085
0.812,-0.085
0.814,-0.09
0.816,-0.09
0.818,-0.095
0.82,-0.1
0.822,-0.1
0.824,-0.1
0.826,-0.1
0.828,-0.1
0.83,-0.095
0.832,-0.095
0.834,-0.095
0.836,-0.095
0.838,-0.095
0.84,-0.095
0.842,-0.095
0.844,-0.095
0.846,-0.095
0.848,-0.09
0.85,-0.09
0.852,-0.085
0.854,-0.085
0.856,-0.085
0.858,-0.085
0.86,-0.085
0.862,-0.09
0.864,-0.09
0.866,-0.095
0.868,-0.095
0.87,-0.095
0.872,-0.095
0.874,-0.09
0.876,-0.09
0.878,-0.09
0.88,-0.09
0.882,-0.085
0.884,-0.085
0.886,-0.085
0.888,-0.085
0.89,-0.085
0.892,-0.085
0.894,-0.09
0.896,-0.09
0.898,-0.09
0.9,-0.09
0.902,-0.09
0.904,-0.085
0.906,-0.08
0.908,-0.075
0.91,-0.07
0.912,-0.065
0.914,-0.065
0.916,-0.065
0.918,-0.075
0.92,-0.08
0.922,-0.085
0.924,-0.09
0.926,-0.09
0.928,-0.085
0.93,-0.08
0.932,-0.07
0.934,-0.06
0.936,-0.055
0.938,-0.05
0.94,-0.055
0.942,-0.06
0.944,-0.065
0.946,-0.07
0.948,-0.075
0.95,-0.075
0.952,-0.07
0.954,-0.06
0.956,-0.05
0.958,-0.04
0.96,-0.03
0.962,-0.02
0.964,-0.015
0.966,-0.01
0.968,-0.01
0.97,-0.015
0.972,-0.02
0.974,-0.025
0.976,-0.035
0.978,-0.04
0.98,-0.055
0.982,-0.065
0.984,-0.075
0.986,-0.08
0.988,-0.09
0.99,-0.09
0.992,-0.09
0.994,-0.085
0.996,-0.085
0.998,-0.08
1,-0.075
1.002,-0.075
1.004,-0.075
1.006,-0.08
1.008,-0.08
1.01,-0.085
1.012,-0.085
1.014,-0.085
1.016,-0.085
1.018,-0.08
1.02,-0.075
1.022,-0.075
1.024,-0.075
1.026,-0.075
1.028,-0.08
1.03,-0.085
1.032,-0.09
1.034,-0.095
1.036,-0.095
1.038,-0.095
1.04,-0.085
1.042,-0.08
1.044,-0.07
1.046,-0.065
1.048,-0.065
1.05,-0.07
1.052,-0.075
1.054,-0.08
1.056,-0.08
1.058,-0.07
1.06,-0.045
1.062,0
1.064,0.065
1.066,0.15
1.068,0.25
1.07,0.355
1.072,0.46
1.074,0.545
1.076,0.61
1.078,0.645
1.08,0.645
1.082,0.605
1.084,0.53
1.086,0.42
1.088,0.295
1.09,0.155
1.092,0.02
1.094,-0.105
1.096,-0.21
1.098,-0.295
1.1,-0.345
1.102,-0.375
1.104,-0.375
1.106,-0.36
1.108,-0.335
1.11,-0.305
1.112,-0.27
1.114,-0.24
1.116,-0.215
1.118,-0.19
1.12,-0.17
1.122,-0.15
1.124,-0.125
1.126,-0.105
1.128,-0.08
1.13,-0.06
1.132,-0.045
1.134,-0.03
1.136,-0.02
1.138,-0.02
1.14,-0.015
1.142,-0.015
1.144,-0.02
1.146,-0.015
1.148,-0.015
1.15,-0.01
1.152,-0.005
1.154,0
1.156,0
1.158,0
1.16,0.005
1.162,0.005
1.164,0.005
1.166,0.005
1.168,0.005
1.17,0.005
1.172,0.01
1.174,0.01
1.176,0.015
1.178,0.015
1.18,0.01
1.182,0.01
1.184,0.01
1.186,0.01
1.188,0.015
1.19,0.015
1.192,0.02
1.194,0.02
1.196,0.02
1.198,0.025
1.2,0.025
1.202,0.025
1.204,0.025
1.206,0.03
1.208,0.035
1.21,0.04
1.212,0.045
1.214,0.05
1.216,0.055
1.218,0.055
1.22,0.055
1.222,0.055
1.224,0.055
1.226,0.055
1.228,0.06
1.23,0.065
1.232,0.07
1.234,0.08
1.236,0.085
1.238,0.09
1.24,0.095
1.242,0.1
1.244,0.105
1.246,0.105
1.248,0.115
1.25,0.12
1.252,0.13
1.254,0.14
1.256,0.155
1.258,0.165
1.26,0.175
1.262,0.18
1.264,0.185
1.266,0.19
1.268,0.195
1.27,0.2
1.272,0.205
1.274,0.21
1.276,0.22
1.278,0.225
1.28,0.235
1.282,0.245
1.284,0.25
1.286,0.255
1.288,0.265
1.29,0.27
1.292,0.27
1.294,0.275
1.296,0.275
1.298,0.275
1.3,0.275
1.302,0.27
1.304,0.26
1.306,0.255
1.308,0.245
1.31,0.23
1.312,0.22
1.314,0.21
1.316,0.195
1.318,0.18
1.32,0.165
1.322,0.15
1.324,0.135
1.326,0.115
1.328,0.1
1.33,0.08
1.332,0.07
1.334,0.055
1.336,0.045
1.338,0.04
1.34,0.035
1.342,0.025
1.344,0.02
1.346,0.01
1.348,0
1.35,-0.01
1.352,-0.02
1.354,-0.03
1.356,-0.035
1.358,-0.035
1.36,-0.035
1.362,-0.035
1.364,-0.03
1.366,-0.03
1.368,-0.035
1.37,-0.04
1.372,-0.045
1.374,-0.055
1.376,-0.06
1.378,-0.07
1.38,-0.07
1.382,-0.07
1.384,-0.065
1.386,-0.06
1.388,-0.05
1.39,-0.045
1.392,-0.04
1.394,-0.035
1.396,-0.04
1.398,-0.04
1.4,-0.045
1.402,-0.05
1.404,-0.055
1.406,-0.055
1.408,-0.055
1.41,-0.055
1.412,-0.05
1.414,-0.05
1.416,-0.05
1.418,-0.045
1.42,-0.045
1.422,-0.04
1.424,-0.04
1.426,-0.04
1.428,-0.035
1.43,-0.035
1.432,-0.035
1.434,-0.035
1.436,-0.04
1.438,-0.04
1.44,-0.04
1.442,-0.04
1.444,-0.04
1.446,-0.04
1.448,-0.035
1.45,-0.035
1.452,-0.035
1.454,-0.035
1.456,-0.035
1.458,-0.04
1.46,-0.04
1.462,-0.04
1.464,-0.045
1.466,-0.04
1.468,-0.04
1.47,-0.04
1.472,-0.04
1.474,-0.04
1.476,-0.04
1.478,-0.04
1.48,-0.04
1.482,-0.04
1.484,-0.04
1.486,-0.04
1.488,-0.035
1.49,-0.03
1.492,-0.03
1.494,-0.025
1.496,-0.025
1.498,-0.025
1.5,-0.025
1.502,-0.025
1.504,-0.025
1.506,-0.025
1.508,-0.025
1.51,-0.025
1.512,-0.02
1.514,-0.02
1.516,-0.02
1.518,-0.02
1.52,-0.02
1.522,-0.02
1.524,-0.02
1.526,-0.02
1.528,-0.02
1.53,-0.025
1.532,-0.025
1.534,-0.03
1.536,-0.03
1.538,-0.035
1.54,-0.04
1.542,-0.045
1.544,-0.045
1.546,-0.045
1.548,-0.045
1.55,-0.04
1.552,-0.035
1.554,-0.03
1.556,-0.025
1.558,-0.025
1.56,-0.025
1.562,-0.025
1.564,-0.03
1.566,-0.03
1.568,-0.035
1.57,-0.04
1.572,-0.04
1.574,-0.04
1.576,-0.035
1.578,-0.035
1.58,-0.035
1.582,-0.035
1.584,-0.035
1.586,-0.035
1.588,-0.04
1.59,-0.04
1.592,-0.04
1.594,-0.04
1.596,-0.04
1.598,-0.04
1.6,-0.04
1.602,-0.04
1.604,-0.045
1.606,-0.045
1.608,-0.05
1.61,-0.05
1.612,-0.05
1.614,-0.05
1.616,-0.045
1.618,-0.04
1.62,-0.035
1.622,-0.03
1.624,-0.03
1.626,-0.03
1.628,-0.03
1.63,-0.035
1.632,-0.04
1.634,-0.045
1.636,-0.05
1.638,-0.05
1.64,-0.05
1.642,-0.045
1.644,-0.045
1.646,-0.045
1.648,-0.045
1.65,-0.045
1.652,-0.05
1.654,-0.055
1.656,-0.055
1.658,-0.055
1.66,-0.05
1.662,-0.05
1.664,-0.04
1.666,-0.035
1.668,-0.03
1.67,-0.03
1.672,-0.03
1.674,-0.03
1.676,-0.03
1.678,-0.03
1.68,-0.03
1.682,-0.03
1.684,-0.025
1.686,-0.02
1.688,-0.015
1.69,-0.015
1.692,-0.01
1.694,-0.01
1.696,-0.01
1.698,-0.01
1.7,-0.01
1.702,-0.01
1.704,-0.005
1.706,0
1.708,0.005
1.71,0.005
1.712,0.01
1.714,0.005
1.716,0.005
1.718,0
1.72,-0.01
1.722,-0.015
1.724,-0.025
1.726,-0.03
1.728,-0.035
1.73,-0.04
1.732,-0.045
1.734,-0.05
1.736,-0.05
1.738,-0.055
1.74,-0.055
1.742,-0.055
1.744,-0.05
1.746,-0.05
1.748,-0.045
1.75,-0.045
1.752,-0.045
1.754,-0.045
1.756,-0.045
1.758,-0.045
1.76,-0.04
1.762,-0.04
1.764,-0.04
1.766,-0.035
1.768,-0.035
1.77,-0.035
1.772,-0.04
1.774,-0.04
1.776,-0.04
1.778,-0.04
1.78,-0.04
1.782,-0.04
1.784,-0.04
1.786,-0.035
1.788,-0.035
1.79,-0.04
1.792,-0.045
1.794,-0.05
1.796,-0.05
1.798,-0.045
1.8,-0.02
1.802,0.02
1.804,0.08
1.806,0.16
1.808,0.25
1.81,0.355
1.812,0.455
1.814,0.545
1.816,0.61
1.818,0.645
1.82,0.645
1.822,0.605
1.824,0.535
1.826,0.43
1.828,0.305
1.83,0.17
1.832,0.035
1.834,-0.09
1.836,-0.195
1.838,-0.28
1.84,-0.34
1.842,-0.375
1.844,-0.38
1.846,-0.37
1.848,-0.345
1.85,-0.315
1.852,-0.275
1.854,-0.24
1.856,-0.21
1.858,-0.18
1.86,-0.155
1.862,-0.135
1.864,-0.12
1.866,-0.1
1.868,-0.085
1.87,-0.07
1.872,-0.055
1.874,-0.045
1.876,-0.04
1.878,-0.035
1.88,-0.03
1.882,-0.03
1.884,-0.03
1.886,-0.035
1.888,-0.035
1.89,-0.03
1.892,-0.03
1.894,-0.025
1.896,-0.015
1.898,-0.01
1.9,-0.01
1.902,-0.005
1.904,-0.005
1.906,-0.01
1.908,-0.015
1.91,-0.02
1.912,-0.02
1.914,-0.025
1.916,-0.025
1.918,-0.02
1.92,-0.015
1.922,-0.01
1.924,0
1.926,0.005
1.928,0.005
1.93,0.01
1.932,0.01
1.934,0.015
1.936,0.015
1.938,0.02
1.94,0.025
1.942,0.03
1.944,0.035
1.946,0.04
1.948,0.04
1.95,0.04
1.952,0.04
1.954,0.035
1.956,0.035
1.958,0.03
1.96,0.035
1.962,0.035
1.964,0.04
1.966,0.045
1.968,0.05
1.97,0.055
1.972,0.06
1.974,0.07
1.976,0.075
1.978,0.085
1.98,0.09
1.982,0.1
1.984,0.105
1.986,0.11
1.988,0.115
1.99,0.12
1.992,0.12
1.994,0.12
1.996,0.12
1.998,0.12
2,0.125
2.002,0.135
2.004,0.14
2.006,0.155
2.008,0.165
2.01,0.175
2.012,0.185
2.014,0.2
2.016,0.21
2.018,0.22
2.02,0.23
2.022,0.24
2.024,0.245
2.026,0.25
2.028,0.255
2.03,0.255
2.032,0.25
2.034,0.245
2.036,0.24
2.038,0.235
2.04,0.235
2.042,0.23
2.044,0.23
2.046,0.23
2.048,0.23
2.05,0.225
2.052,0.215
2.054,0.2
2.056,0.185
2.058,0.165
2.06,0.145
2.062,0.12
2.064,0.1
2.066,0.08
2.068,0.065
2.07,0.05
2.072,0.035
2.074,0.025
2.076,0.015
2.078,0.01
2.08,0.005
2.082,-0.005
2.084,-0.01
2.086,-0.02
2.088,-0.03
2.09,-0.04
2.092,-0.055
2.094,-0.06
2.096,-0.07
2.098,-0.075
2.1,-0.075
2.102,-0.07
2.104,-0.07
2.106,-0.065
2.108,-0.06
2.11,-0.06
2.112,-0.06
2.114,-0.065
2.116,-0.07
2.118,-0.07
2.12,-0.075
2.122,-0.08
2.124,-0.075
2.126,-0.075
2.128,-0.07
2.13,-0.07
2.132,-0.07
2.134,-0.07
2.136,-0.075
2.138,-0.08
2.14,-0.085
2.142,-0.09
2.144,-0.09
2.146,-0.09
2.148,-0.09
2.15,-0.08
2.152,-0.075
2.154,-0.07
2.156,-0.06
2.158,-0.06
2.16,-0.06
2.162,-0.06
2.164,-0.065
2.166,-0.065
2.168,-0.07
2.17,-0.07
2.172,-0.07
2.174,-0.07
2.176,-0.07
2.178,-0.07
2.18,-0.07
2.182,-0.07
2.184,-0.07
2.186,-0.07
2.188,-0.07
2.19,-0.07
2.192,-0.065
2.194,-0.06
2.196,-0.06
2.198,-0.055
2.2,-0.05
2.202,-0.05
2.204,-0.05
2.206,-0.05
2.208,-0.05
2.21,-0.05
2.212,-0.05
2.214,-0.05
2.216,-0.045
2.218,-0.04
2.22,-0.04
2.222,-0.04
2.224,-0.045
2.226,-0.05
2.228,-0.055
2.23,-0.06
2.232,-0.065
2.234,-0.065
2.236,-0.065
2.238,-0.065
2.24,-0.06
2.242,-0.055
2.244,-0.05
2.246,-0.05
2.248,-0.045
2.25,-0.045
2.252,-0.045
2.254,-0.045
2.256,-0.04
2.258,-0.04
2.26,-0.04
2.262,-0.04
2.264,-0.04
2.266,-0.045
2.268,-0.05
2.27,-0.06
2.272,-0.065
2.274,-0.065
2.276,-0.065
2.278,-0.06
2.28,-0.055
2.282,-0.05
2.284,-0.045
2.286,-0.045
2.288,-0.045
2.29,-0.05
2.292,-0.06
2.294,-0.065
2.296,-0.07
2.298,-0.07
2.3,-0.07
2.302,-0.065
2.304,-0.06
2.306,-0.055
2.308,-0.05
2.31,-0.05
2.312,-0.05
2.314,-0.05
2.316,-0.05
2.318,-0.05
2.32,-0.045
2.322,-0.045
2.324,-0.04
2.326,-0.035
2.328,-0.035
2.33,-0.035
2.332,-0.04
2.334,-0.05
2.336,-0.055
2.338,-0.065
2.34,-0.065
2.342,-0.065
2.344,-0.065
2.346,-0.06
2.348,-0.05
2.35,-0.05
2.352,-0.045
2.354,-0.05
2.356,-0.05
2.358,-0.055
2.36,-0.06
2.362,-0.06
2.364,-0.06
2.366,-0.055
2.368,-0.05
2.37,-0.045
2.372,-0.035
2.374,-0.03
2.376,-0.025
2.378,-0.025
2.38,-0.025
2.382,-0.03
2.384,-0.03
2.386,-0.035
2.388,-0.04
2.39,-0.04
2.392,-0.04
2.394,-0.04
2.396,-0.04
2.398,-0.04
2.4,-0.04
2.402,-0.04
2.404,-0.035
2.406,-0.035
2.408,-0.03
2.41,-0.03
2.412,-0.02
2.414,-0.015
2.416,-0.01
2.418,0
2.42,0.005
2.422,0.005
2.424,0.005
2.426,0.005
2.428,0
2.43,-0.005
2.432,-0.015
2.434,-0.02
2.436,-0.03
2.438,-0.04
2.44,-0.045
2.442,-0.055
2.444,-0.06
2.446,-0.06
2.448,-0.065
2.45,-0.06
2.452,-0.06
2.454,-0.055
2.456,-0.055
2.458,-0.05
2.46,-0.05
2.462,-0.05
2.464,-0.05
2.466,-0.05
2.468,-0.05
2.47,-0.05
2.472,-0.05
2.474,-0.05
2.476,-0.045
2.478,-0.045
2.48,-0.045
2.482,-0.045
2.484,-0.05
2.486,-0.055
2.488,-0.06
2.49,-0.065
2.492,-0.065
2.494,-0.065
2.496,-0.06
2.498,-0.055
2.5,-0.045
2.502,-0.04
2.504,-0.04
2.506,-0.04
2.508,-0.045
2.51,-0.05
2.512,-0.055
2.514,-0.045
2.516,-0.025
2.518,0.015
2.52,0.08
2.522,0.16
2.524,0.26
2.526,0.37
2.528,0.48
2.53,0.575
2.532,0.645
2.534,0.685
2.536,0.68
2.538,0.635
2.54,0.55
2.542,0.435
2.544,0.3
2.546,0.155
2.548,0.02
2.55,-0.105
2.552,-0.2
2.554,-0.275
2.556,-0.32
2.558,-0.34
2.56,-0.345
2.562,-0.335
2.564,-0.32
2.566,-0.295
2.568,-0.275
2.57,-0.25
2.572,-0.225
2.574,-0.195
2.576,-0.165
2.578,-0.14
2.58,-0.11
2.582,-0.085
2.584,-0.07
2.586,-0.055
2.588,-0.05
2.59,-0.045
2.592,-0.045
2.594,-0.04
2.596,-0.04
2.598,-0.035
2.6,-0.03
2.602,-0.025
2.604,-0.02
2.606,-0.02
2.608,-0.02
2.61,-0.02
2.612,-0.025
2.614,-0.025
2.616,-0.03
2.618,-0.03
2.62,-0.025
2.622,-0.02
2.624,-0.015
2.626,-0.01
2.628,-0.005
2.63,0
2.632,0.005
2.634,0.005
2.636,0.01
2.638,0.01
2.64,0.015
2.642,0.015
2.644,0.02
2.646,0.025
2.648,0.025
2.65,0.025
2.652,0.025
2.654,0.02
2.656,0.02
2.658,0.02
2.66,0.02
2.662,0.025
2.664,0.03
2.666,0.035
2.668,0.04
2.67,0.045
2.672,0.045
2.674,0.05
2.676,0.05
2.678,0.055
2.68,0.06
2.682,0.065
2.684,0.07
2.686,0.075
2.688,0.08
2.69,0.09
2.692,0.09
2.694,0.095
2.696,0.095
2.698,0.1
2.7,0.1
2.702,0.105
2.704,0.115
2.706,0.125
2.708,0.135
2.71,0.145
2.712,0.155
2.714,0.165
2.716,0.17
2.718,0.175
2.72,0.18
2.722,0.185
2.724,0.19
2.726,0.195
2.728,0.21
2.73,0.22
2.732,0.235
2.734,0.245
2.736,0.25
2.738,0.255
2.74,0.255
2.742,0.255
2.744,0.25
2.746,0.25
2.748,0.25
2.75,0.255
2.752,0.26
2.754,0.265
2.756,0.265
2.758,0.265
2.76,0.26
2.762,0.25
2.764,0.235
2.766,0.22
2.768,0.205
2.77,0.185
2.772,0.17
2.774,0.15
2.776,0.135
2.778,0.125
2.78,0.11
2.782,0.095
2.784,0.08
2.786,0.065
2.788,0.055
2.79,0.04
2.792,0.025
2.794,0.015
2.796,0
2.798,-0.01
2.8,-0.02
2.802,-0.03
2.804,-0.04
2.806,-0.045
2.808,-0.05
2.81,-0.055
2.812,-0.055
2.814,-0.055
2.816,-0.055
2.818,-0.055
2.82,-0.055
2.822,-0.055
2.824,-0.06
2.826,-0.065
2.828,-0.07
2.83,-0.075
2.832,-0.075
2.834,-0.075
2.836,-0.075
2.838,-0.075
2.84,-0.075
2.842,-0.075
2.844,-0.075
2.846,-0.08
2.848,-0.08
2.85,-0.085
2.852,-0.085
2.854,-0.08
2.856,-0.08
2.858,-0.075
2.86,-0.075
2.862,-0.07
2.864,-0.07
2.866,-0.075
2.868,-0.075
2.87,-0.08
2.872,-0.085
2.874,-0.085
2.876,-0.085
2.878,-0.085
2.88,-0.08
2.882,-0.08
2.884,-0.075
2.886,-0.075
2.888,-0.08
2.89,-0.08
2.892,-0.085
2.894,-0.085
2.896,-0.085
2.898,-0.085
2.9,-0.08
2.902,-0.075
2.904,-0.07
2.906,-0.065
2.908,-0.065
2.91,-0.06
2.912,-0.06
2.914,-0.06
2.916,-0.065
2.918,-0.065
2.92,-0.065
2.922,-0.065
2.924,-0.065
2.926,-0.065
2.928,-0.065
2.93,-0.065
2.932,-0.065
2.934,-0.065
2.936,-0.065
2.938,-0.065
2.94,-0.06
2.942,-0.055
2.944,-0.055
2.946,-0.05
2.948,-0.045
2.95,-0.045
2.952,-0.045
2.954,-0.05
2.956,-0.055
2.958,-0.06
2.96,-0.065
2.962,-0.07
2.964,-0.07
2.966,-0.07
2.968,-0.065
2.97,-0.065
2.972,-0.06
2.974,-0.055
2.976,-0.05
2.978,-0.05
2.98,-0.05
2.982,-0.055
2.984,-0.06
2.986,-0.06
2.988,-0.06
2.99,-0.06
2.992,-0.06
2.994,-0.055
2.996,-0.055
2.998,-0.05
3,-0.05
3.002,-0.05
3.004,-0.055
3.006,-0.06
3.008,-0.06
3.01,-0.065
3.012,-0.065
3.014,-0.07
3.016,-0.07
3.018,-0.07
3.02,-0.07
3.022,-0.065
3.024,-0.065
3.026,-0.065
3.028,-0.065
3.03,-0.06
3.032,-0.06
3.034,-0.06
3.036,-0.06
3.038,-0.06
3.04,-0.06
3.042,-0.065
3.044,-0.065
3.046,-0.065
3.048,-0.065
3.05,-0.065
3.052,-0.06
3.054,-0.06
3.056,-0.06
3.058,-0.06
3.06,-0.06
3.062,-0.065
3.064,-0.07
3.066,-0.07
3.068,-0.075
3.07,-0.07
3.072,-0.07
3.074,-0.065
3.076,-0.06
3.078,-0.055
3.08,-0.05
3.082,-0.05
3.084,-0.05
3.086,-0.05
3.088,-0.055
3.09,-0.06
3.092,-0.06
3.094,-0.06
3.096,-0.06
3.098,-0.06
3.1,-0.06
3.102,-0.06
3.104,-0.055
3.106,-0.055
3.108,-0.055
3.11,-0.05
3.112,-0.045
3.114,-0.04
3.116,-0.03
3.118,-0.025
3.12,-0.02
3.122,-0.01
3.124,-0.01
3.126,-0.005
3.128,-0.005
3.13,-0.01
3.132,-0.015
3.134,-0.02
3.136,-0.025
3.138,-0.03
3.14,-0.04
3.142,-0.05
3.144,-0.055
3.146,-0.065
3.148,-0.07
3.15,-0.07
3.152,-0.075
3.154,-0.07
3.156,-0.07
3.158,-0.065
3.16,-0.055
3.162,-0.05
3.164,-0.05
3.166,-0.045
3.168,-0.045
3.17,-0.045
3.172,-0.05
3.174,-0.055
3.176,-0.055
3.178,-0.06
3.18,-0.065
3.182,-0.07
3.184,-0.07
3.186,-0.07
3.188,-0.07
3.19,-0.07
3.192,-0.065
3.194,-0.065
3.196,-0.065
3.198,-0.065
3.2,-0.07
3.202,-0.07
3.204,-0.075
3.206,-0.075
3.208,-0.08
3.21,-0.08
3.212,-0.08
3.214,-0.075
3.216,-0.07
3.218,-0.06
3.22,-0.045
3.222,-0.015
3.224,0.03
3.226,0.095
3.228,0.175
3.23,0.265
3.232,0.37
3.234,0.47
3.236,0.565
3.238,0.63
3.24,0.665
3.242,0.66
3.244,0.61
3.246,0.52
3.248,0.4
3.25,0.265
3.252,0.12
3.254,-0.015
3.256,-0.13
3.258,-0.225
3.26,-0.29
3.262,-0.33
3.264,-0.345
3.266,-0.345
3.268,-0.335
3.27,-0.32
3.272,-0.3
3.274,-0.28
3.276,-0.255
3.278,-0.23
3.28,-0.205
3.282,-0.175
3.284,-0.145
3.286,-0.12
3.288,-0.095
3.29,-0.075
3.292,-0.065
3.294,-0.055
3.296,-0.055
3.298,-0.055
3.3,-0.055
3.302,-0.055
3.304,-0.055
3.306,-0.05
3.308,-0.045
3.31,-0.035
3.312,-0.03
3.314,-0.025
3.316,-0.025
3.318,-0.02
3.32,-0.02
3.322,-0.02
3.324,-0.015
3.326,-0.015
3.328,-0.01
3.33,-0.005
3.332,0
3.334,0.005
3.336,0.005
3.338,0.005
3.34,0.005
3.342,0
3.344,-0.005
3.346,-0.01
3.348,-0.01
3.35,-0.01
3.352,-0.005
3.354,0
3.356,0.005
3.358,0.01
3.36,0.01
3.362,0.015
3.364,0.015
3.366,0.02
3.368,0.02
3.37,0.025
3.372,0.03
3.374,0.03
3.376,0.035
3.378,0.04
3.38,0.04
3.382,0.04
3.384,0.04
3.386,0.045
3.388,0.045
3.39,0.05
3.392,0.06
3.394,0.065
3.396,0.075
3.398,0.08
3.4,0.085
3.402,0.09
3.404,0.095
3.406,0.1
3.408,0.105
3.41,0.115
3.412,0.125
3.414,0.135
3.416,0.15
3.418,0.16
3.42,0.17
3.422,0.18
3.424,0.18
3.426,0.185
3.428,0.185
3.43,0.185
3.432,0.185
3.434,0.19
3.436,0.2
3.438,0.215
3.44,0.23
3.442,0.24
3.444,0.255
3.446,0.265
3.448,0.27
3.45,0.275
3.452,0.275
3.454,0.27
3.456,0.27
3.458,0.265
3.46,0.26
3.462,0.255
3.464,0.25
3.466,0.24
3.468,0.235
3.47,0.225
3.472,0.22
3.474,0.205
3.476,0.195
3.478,0.18
3.48,0.165
3.482,0.145
3.484,0.125
3.486,0.105
3.488,0.085
3.49,0.07
3.492,0.05
3.494,0.035
3.496,0.025
3.498,0.015
3.5,0.01
3.502,0
3.504,-0.005
3.506,-0.01
3.508,-0.015
3.51,-0.02
3.512,-0.025
3.514,-0.03
3.516,-0.035
3.518,-0.04
3.52,-0.045
3.522,-0.05
3.524,-0.05
3.526,-0.055
3.528,-0.055
3.53,-0.055
3.532,-0.055
3.534,-0.06
3.536,-0.06
3.538,-0.06
3.54,-0.06
3.542,-0.065
3.544,-0.065
3.546,-0.065
3.548,-0.065
3.55,-0.07
3.552,-0.07
3.554,-0.07
3.556,-0.07
3.558,-0.07
3.56,-0.065
3.562,-0.065
3.564,-0.06
3.566,-0.055
3.568,-0.055
3.57,-0.055
3.572,-0.055
3.574,-0.06
3.576,-0.065
3.578,-0.07
3.58,-0.07
3.582,-0.075
3.584,-0.07
3.586,-0.065
3.588,-0.06
3.59,-0.055
3.592,-0.05
3.594,-0.045
3.596,-0.045
3.598,-0.05
3.6,-0.06
3.602,-0.065
3.604,-0.07
3.606,-0.075
3.608,-0.075
3.61,-0.07
3.612,-0.065
3.614,-0.06
3.616,-0.055
3.618,-0.05
3.62,-0.045
3.622,-0.045
3.624,-0.045
3.626,-0.045
3.628,-0.045
3.63,-0.045
3.632,-0.045
3.634,-0.045
3.636,-0.045
3.638,-0.045
3.64,-0.045
3.642,-0.04
3.644,-0.04
3.646,-0.04
3.648,-0.035
3.65,-0.035
3.652,-0.035
3.654,-0.035
3.656,-0.04
3.658,-0.04
3.66,-0.045
3.662,-0.045
3.664,-0.05
3.666,-0.045
3.668,-0.045
3.67,-0.04
3.672,-0.03
3.674,-0.025
3.676,-0.025
3.678,-0.025
3.68,-0.025
3.682,-0.03
3.684,-0.035
3.686,-0.035
3.688,-0.04
3.69,-0.04
3.692,-0.04
3.694,-0.04
3.696,-0.045
3.698,-0.045
3.7,-0.045
3.702,-0.05
3.704,-0.055
3.706,-0.055
3.708,-0.05
3.71,-0.05
3.712,-0.04
3.714,-0.035
3.716,-0.03
3.718,-0.025
3.72,-0.025
3.722,-0.03
3.724,-0.035
3.726,-0.04
3.728,-0.045
3.73,-0.045
3.732,-0.045
3.734,-0.045
3.736,-0.04
3.738,-0.035
3.74,-0.03
3.742,-0.03
3.744,-0.03
3.746,-0.035
3.748,-0.04
3.75,-0.045
3.752,-0.05
3.754,-0.05
3.756,-0.055
3.758,-0.055
3.76,-0.055
3.762,-0.055
3.764,-0.055
3.766,-0.05
3.768,-0.05
3.77,-0.045
3.772,-0.04
3.774,-0.035
3.776,-0.03
3.778,-0.025
3.78,-0.025
3.782,-0.025
3.784,-0.025
3.786,-0.03
3.788,-0.035
3.79,-0.04
3.792,-0.04
3.794,-0.045
3.796,-0.045
3.798,-0.04
3.8,-0.035
3.802,-0.03
3.804,-0.03
3.806,-0.03
3.808,-0.03
3.81,-0.035
3.812,-0.045
3.814,-0.05
3.816,-0.055
3.818,-0.055
3.82,-0.055
3.822,-0.045
3.824,-0.04
3.826,-0.03
3.828,-0.02
3.83,-0.01
3.832,-0.01
3.834,-0.005
3.836,-0.005
3.838,-0.005
3.84,-0.005
3.842,-0.005
3.844,-0.005
3.846,-0.005
3.848,-0.005
3.85,-0.005
3.852,-0.015
3.854,-0.02
3.856,-0.035
3.858,-0.045
3.86,-0.06
3.862,-0.07
3.864,-0.075
3.866,-0.075
3.868,-0.075
3.87,-0.07
3.872,-0.065
3.874,-0.06
3.876,-0.055
3.878,-0.05
3.88,-0.05
3.882,-0.05
3.884,-0.045
3.886,-0.045
3.888,-0.04
3.89,-0.04
3.892,-0.035
3.894,-0.035
3.896,-0.035
3.898,-0.04
3.9,-0.045
3.902,-0.05
3.904,-0.055
3.906,-0.055
3.908,-0.055
3.91,-0.055
3.912,-0.05
3.914,-0.045
3.916,-0.04
3.918,-0.035
3.92,-0.035
3.922,-0.04
3.924,-0.045
3.926,-0.05
3.928,-0.06
3.93,-0.065
3.932,-0.06
3.934,-0.04
3.936,-0.01
3.938,0.045
3.94,0.115
3.942,0.205
3.944,0.305
3.946,0.41
3.948,0.51
3.95,0.595
3.952,0.655
3.954,0.675
3.956,0.66
3.958,0.605
3.96,0.515
3.962,0.395
3.964,0.26
3.966,0.12
3.968,-0.015
3.97,-0.13
3.972,-0.225
3.974,-0.295
3.976,-0.335
3.978,-0.35
3.98,-0.35
3.982,-0.335
3.984,-0.31
3.986,-0.285
3.988,-0.255
3.99,-0.225
3.992,-0.195
3.994,-0.17
3.996,-0.145
3.998,-0.12
4,-0.1
4.002,-0.085
4.004,-0.07
4.006,-0.06
4.008,-0.055
4.01,-0.05
4.012,-0.045
4.014,-0.04
4.016,-0.035
4.018,-0.03
4.02,-0.02
4.022,-0.015
4.024,-0.01
4.026,-0.01
4.028,-0.01
4.03,-0.01
4.032,-0.015
4.034,-0.02
4.036,-0.025
4.038,-0.025
4.04,-0.025
4.042,-0.02
4.044,-0.01
4.046,0
4.048,0.005
4.05,0.015
4.052,0.015
4.054,0.02
4.056,0.015
4.058,0.015
4.06,0.01
4.062,0.005
4.064,0.005
4.066,0.005
4.068,0.005
4.07,0.01
4.072,0.015
4.074,0.025
4.076,0.03
4.078,0.035
4.08,0.04
4.082,0.045
4.084,0.045
4.086,0.045
4.088,0.045
4.09,0.045
4.092,0.045
4.094,0.045
4.096,0.045
4.098,0.05
4.1,0.055
4.102,0.065
4.104,0.07
4.106,0.075
4.108,0.08
4.11,0.085
4.112,0.09
4.114,0.09
4.116,0.095
4.118,0.095
4.12,0.105
4.122,0.11
4.124,0.12
4.126,0.135
4.128,0.145
4.13,0.155
4.132,0.16
4.134,0.165
4.136,0.17
4.138,0.175
4.14,0.18
4.142,0.19
4.144,0.2
4.146,0.205
4.148,0.22
4.15,0.23
4.152,0.235
4.154,0.245
4.156,0.245
4.158,0.25
4.16,0.25
4.162,0.245
4.164,0.245
4.166,0.245
4.168,0.245
4.17,0.25
4.172,0.25
4.174,0.255
4.176,0.26
4.178,0.26
4.18,0.26
4.182,0.255
4.184,0.245
4.186,0.23
4.188,0.21
4.19,0.185
4.192,0.16
4.194,0.135
4.196,0.11
4.198,0.09
4.2,0.075
4.202,0.06
4.204,0.05
4.206,0.045
4.208,0.04
4.21,0.03
4.212,0.02
4.214,0.005
4.216,-0.01
4.218,-0.025
4.22,-0.035
4.222,-0.04
4.224,-0.045
4.226,-0.045
4.228,-0.045
4.23,-0.045
4.232,-0.04
4.234,-0.04
4.236,-0.045
4.238,-0.05
4.24,-0.055
4.242,-0.055
4.244,-0.06
4.246,-0.06
4.248,-0.06
4.25,-0.06
4.252,-0.06
4.254,-0.06
4.256,-0.065
4.258,-0.07
4.26,-0.075
4.262,-0.08
4.264,-0.085
4.266,-0.085
4.268,-0.085
4.27,-0.08
4.272,-0.08
4.274,-0.075
4.276,-0.075
4.278,-0.075
4.28,-0.075
4.282,-0.08
4.284,-0.08
4.286,-0.085
4.288,-0.085
4.29,-0.085
4.292,-0.08
4.294,-0.075
4.296,-0.07
4.298,-0.065
4.3,-0.06
4.302,-0.06
4.304,-0.065
4.306,-0.07
4.308,-0.08
4.31,-0.085
4.312,-0.09
4.314,-0.095
4.316,-0.095
4.318,-0.09
4.32,-0.085
4.322,-0.075
4.324,-0.07
4.326,-0.065
4.328,-0.06
4.33,-0.055
4.332,-0.055
4.334,-0.055
4.336,-0.055
4.338,-0.055
4.34,-0.055
4.342,-0.055
4.344,-0.055
4.346,-0.055
4.348,-0.055
4.35,-0.055
4.352,-0.055
4.354,-0.055
4.356,-0.055
4.358,-0.06
4.36,-0.06
4.362,-0.06
4.364,-0.06
4.366,-0.06
4.368,-0.065
4.37,-0.065
4.372,-0.06
4.374,-0.06
4.376,-0.055
4.378,-0.05
4.38,-0.045
4.382,-0.035
4.384,-0.035
4.386,-0.035
4.388,-0.035
4.39,-0.04
4.392,-0.045
4.394,-0.05
4.396,-0.055
4.398,-0.055
4.4,-0.055
4.402,-0.05
4.404,-0.045
4.406,-0.04
4.408,-0.04
4.41,-0.04
4.412,-0.045
4.414,-0.045
4.416,-0.05
4.418,-0.055
4.42,-0.055
4.422,-0.055
4.424,-0.05
4.426,-0.045
4.428,-0.04
4.43,-0.04
4.432,-0.04
4.434,-0.045
4.436,-0.05
4.438,-0.06
4.44,-0.07
4.442,-0.075
4.444,-0.08
4.446,-0.085
4.448,-0.08
4.45,-0.08
4.452,-0.075
4.454,-0.07
4.456,-0.065
4.458,-0.06
4.46,-0.055
4.462,-0.055
4.464,-0.05
4.466,-0.05
4.468,-0.055
4.47,-0.055
4.472,-0.06
4.474,-0.065
4.476,-0.07
4.478,-0.075
4.48,-0.075
4.482,-0.075
4.484,-0.075
4.486,-0.075
4.488,-0.07
4.49,-0.065
4.492,-0.065
4.494,-0.06
4.496,-0.055
4.498,-0.05
4.5,-0.05
4.502,-0.045
4.504,-0.045
4.506,-0.045
4.508,-0.045
4.51,-0.045
4.512,-0.05
4.514,-0.05
4.516,-0.055
4.518,-0.055
4.52,-0.05
4.522,-0.045
4.524,-0.04
4.526,-0.03
4.528,-0.02
4.53,-0.01
4.532,0
4.534,0.005
4.536,0.005
4.538,0.005
4.54,0.005
4.542,0
4.544,-0.005
4.546,-0.015
4.548,-0.025
4.55,-0.035
4.552,-0.05
4.554,-0.065
4.556,-0.075
4.558,-0.085
4.56,-0.085
4.562,-0.08
4.564,-0.075
4.566,-0.065
4.568,-0.055
4.57,-0.05
4.572,-0.05
4.574,-0.055
4.576,-0.065
4.578,-0.075
4.58,-0.085
4.582,-0.09
4.584,-0.085
4.586,-0.08
4.588,-0.065
4.59,-0.05
4.592,-0.03
4.594,-0.015
4.596,0.005
4.598,0.03
4.6,0.07
4.602,0.125
4.604,0.2
4.606,0.295
4.608,0.395
4.61,0.495
4.612,0.575
4.614,0.625
4.616,0.635
4.618,0.59
4.62,0.5
4.622,0.37
4.624,0.22
4.626,0.07
4.628,-0.07
4.63,-0.185
4.632,-0.265
4.634,-0.31
4.636,-0.325
4.638,-0.325
4.64,-0.31
4.642,-0.295
4.644,-0.285
4.646,-0.275
4.648,-0.27
4.65,-0.255
4.652,-0.24
4.654,-0.215
4.656,-0.18
4.658,-0.14
4.66,-0.105
4.662,-0.075
4.664,-0.055
4.666,-0.045
4.668,-0.045
4.67,-0.05
4.672,-0.055
4.674,-0.06
4.676,-0.06
4.678,-0.05
4.68,-0.04
4.682,-0.025
4.684,-0.015
4.686,-0.005
4.688,0
4.69,0
4.692,-0.005
4.694,-0.01
4.696,-0.01
4.698,-0.015
4.7,-0.01
4.702,-0.005
4.704,0.005
4.706,0.01
4.708,0.015
4.71,0.02
4.712,0.015
4.714,0.01
4.716,0.005
4.718,0
4.72,-0.005
4.722,-0.01
4.724,-0.005
4.726,0
4.728,0.005
4.73,0.015
4.732,0.025
4.734,0.03
4.736,0.035
4.738,0.035
4.74,0.035
4.742,0.035
4.744,0.03
4.746,0.03
4.748,0.03
4.75,0.03
4.752,0.035
4.754,0.035
4.756,0.04
4.758,0.045
4.76,0.05
4.762,0.055
4.764,0.06
4.766,0.065
4.768,0.07
4.77,0.075
4.772,0.08
4.774,0.085
4.776,0.09
4.778,0.1
4.78,0.105
4.782,0.11
4.784,0.12
4.786,0.13
4.788,0.14
4.79,0.145
4.792,0.155
4.794,0.16
4.796,0.165
4.798,0.17
4.8,0.175
4.802,0.185
4.804,0.195
4.806,0.205
4.808,0.215
4.81,0.225
4.812,0.23
4.814,0.235
4.816,0.24
4.818,0.24
4.82,0.235
4.822,0.235
4.824,0.24
4.826,0.24
4.828,0.245
4.83,0.25
4.832,0.255
4.834,0.26
4.836,0.26
4.838,0.26
4.84,0.25
4.842,0.24
4.844,0.23
4.846,0.215
4.848,0.2
4.85,0.18
4.852,0.165
4.854,0.15
4.856,0.13
4.858,0.115
4.86,0.095
4.862,0.075
4.864,0.06
4.866,0.04
4.868,0.025
4.87,0.01
4.872,0
4.874,-0.005
4.876,-0.01
4.878,-0.015
4.88,-0.02
4.882,-0.02
4.884,-0.025
4.886,-0.035
4.888,-0.04
4.89,-0.05
4.892,-0.055
4.894,-0.065
4.896,-0.07
4.898,-0.07
4.9,-0.07
4.902,-0.07
4.904,-0.07
4.906,-0.07
4.908,-0.07
4.91,-0.07
4.912,-0.07
4.914,-0.07
4.916,-0.07
4.918,-0.07
4.92,-0.075
4.922,-0.075
4.924,-0.075
4.926,-0.075
4.928,-0.075
4.93,-0.08
4.932,-0.08
4.934,-0.085
4.936,-0.085
4.938,-0.09
4.94,-0.085
4.942,-0.085
4.944,-0.08
4.946,-0.08
4.948,-0.08
4.95,-0.08
4.952,-0.08
4.954,-0.08
4.956,-0.08
4.958,-0.08
4.96,-0.08
4.962,-0.08
4.964,-0.075
4.966,-0.075
4.968,-0.07
4.97,-0.07
4.972,-0.075
4.974,-0.075
4.976,-0.075
4.978,-0.075
4.98,-0.07
4.982,-0.065
4.984,-0.06
4.986,-0.06
4.988,-0.055
4.99,-0.055
4.992,-0.06
4.994,-0.065
4.996,-0.07
4.998,-0.07
5,-0.075
5.002,-0.075
5.004,-0.07
5.006,-0.065
5.008,-0.06
5.01,-0.06
5.012,-0.06
5.014,-0.06
5.016,-0.065
5.018,-0.07
5.02,-0.07
5.022,-0.07
5.024,-0.065
5.026,-0.055
5.028,-0.045
5.03,-0.035
5.032,-0.03
5.034,-0.03
5.036,-0.03
5.038,-0.035
5.04,-0.04
5.042,-0.05
5.044,-0.055
5.046,-0.055
5.048,-0.055
5.05,-0.05
5.052,-0.05
5.054,-0.045
5.056,-0.045
5.058,-0.045
5.06,-0.05
5.062,-0.055
5.064,-0.06
5.066,-0.065
5.068,-0.065
5.07,-0.065
5.072,-0.065
5.074,-0.065
5.076,-0.06
5.078,-0.06
5.08,-0.055
5.082,-0.055
5.084,-0.05
5.086,-0.05
5.088,-0.045
5.09,-0.045
5.092,-0.045
5.094,-0.045
5.096,-0.045
5.098,-0.045
5.1,-0.05
5.102,-0.05
5.104,-0.055
5.106,-0.055
5.108,-0.055
5.11,-0.06
5.112,-0.06
5.114,-0.065
5.116,-0.065
5.118,-0.065
5.12,-0.065
5.122,-0.065
5.124,-0.065
5.126,-0.06
5.128,-0.06
5.13,-0.055
5.132,-0.05
5.134,-0.05
5.136,-0.05
5.138,-0.05
5.14,-0.055
5.142,-0.06
5.144,-0.06
5.146,-0.065
5.148,-0.065
5.15,-0.065
5.152,-0.06
5.154,-0.05
5.156,-0.045
5.158,-0.04
5.16,-0.035
5.162,-0.035
5.164,-0.04
5.166,-0.05
5.168,-0.055
5.17,-0.065
5.172,-0.07
5.174,-0.07
5.176,-0.07
5.178,-0.06
5.18,-0.045
5.182,-0.03
5.184,-0.015
5.186,-0.005
5.188,0.005
5.19,0.005
5.192,0.005
5.194,0
5.196,-0.005
5.198,-0.01
5.2,-0.015
5.202,-0.02
5.204,-0.02
5.206,-0.025
5.208,-0.025
5.21,-0.03
5.212,-0.035
5.214,-0.04
5.216,-0.05
5.218,-0.055
5.22,-0.065
5.222,-0.07
5.224,-0.075
5.226,-0.075
5.228,-0.075
5.23,-0.075
5.232,-0.075
5.234,-0.07
5.236,-0.07
5.238,-0.065
5.24,-0.06
5.242,-0.06
5.244,-0.055
5.246,-0.055
5.248,-0.05
5.25,-0.055
5.252,-0.055
5.254,-0.055
5.256,-0.06
5.258,-0.065
5.26,-0.07
5.262,-0.07
5.264,-0.07
5.266,-0.065
5.268,-0.06
5.27,-0.055
5.272,-0.05
5.274,-0.045
5.276,-0.045
5.278,-0.045
5.28,-0.05
5.282,-0.055
5.284,-0.055
5.286,-0.045
5.288,-0.03
5.29,0.005
5.292,0.06
5.294,0.13
5.296,0.215
5.298,0.315
5.3,0.415
5.302,0.505
5.304,0.58
5.306,0.625
5.308,0.64
5.31,0.615
5.312,0.555
5.314,0.46
5.316,0.345
5.318,0.21
5.32,0.08
5.322,-0.045
5.324,-0.15
5.326,-0.235
5.328,-0.295
5.33,-0.33
5.332,-0.345
5.334,-0.345
5.336,-0.33
5.338,-0.305
5.34,-0.28
5.342,-0.255
5.344,-0.225
5.346,-0.2
5.348,-0.175
5.35,-0.15
5.352,-0.125
5.354,-0.105
5.356,-0.085
5.358,-0.065
5.36,-0.055
5.362,-0.045
5.364,-0.04
5.366,-0.035
5.368,-0.035
5.37,-0.035
5.372,-0.035
5.374,-0.03
5.376,-0.025
5.378,-0.025
5.38,-0.02
5.382,-0.015
5.384,-0.015
5.386,-0.01
5.388,-0.01
5.39,-0.01
5.392,-0.01
5.394,-0.005
5.396,-0.005
5.398,-0.005
5.4,-0.005
5.402,-0.005
5.404,-0.005
5.406,-0.005
5.408,-0.01
5.41,-0.01
5.412,-0.01
5.414,-0.01
5.416,-0.005
5.418,0
5.42,0.01
5.422,0.015
5.424,0.02
5.426,0.025
5.428,0.025
5.43,0.025
5.432,0.03
5.434,0.03
5.436,0.03
5.438,0.03
5.44,0.03
5.442,0.03
5.444,0.03
5.446,0.035
5.448,0.035
5.45,0.04
5.452,0.045
5.454,0.05
5.456,0.06
5.458,0.07
5.46,0.08
5.462,0.09
5.464,0.1
5.466,0.105
5.468,0.105
5.47,0.11
5.472,0.105
5.474,0.105
5.476,0.1
5.478,0.1
5.48,0.105
5.482,0.11
5.484,0.12
5.486,0.135
5.488,0.145
5.49,0.165
5.492,0.18
5.494,0.19
5.496,0.2
5.498,0.21
5.5,0.215
5.502,0.22
5.504,0.225
5.506,0.225
5.508,0.23
5.51,0.24
5.512,0.245
5.514,0.255
5.516,0.265
5.518,0.27
5.52,0.28
5.522,0.28
5.524,0.28
5.526,0.275
5.528,0.27
5.53,0.265
5.532,0.255
5.534,0.25
5.536,0.24
5.538,0.23
5.54,0.22
5.542,0.21
5.544,0.19
5.546,0.175
5.548,0.155
5.55,0.135
5.552,0.115
5.554,0.1
5.556,0.085
5.558,0.07
5.56,0.06
5.562,0.045
5.564,0.035
5.566,0.02
5.568,0.01
5.57,-0.005
5.572,-0.015
5.574,-0.025
5.576,-0.03
5.578,-0.035
5.58,-0.035
5.582,-0.035
5.584,-0.035
5.586,-0.035
5.588,-0.04
5.59,-0.045
5.592,-0.05
5.594,-0.055
5.596,-0.065
5.598,-0.065
5.6,-0.07
5.602,-0.07
5.604,-0.065
5.606,-0.065
5.608,-0.07
5.61,-0.07
5.612,-0.075
5.614,-0.075
5.616,-0.08
5.618,-0.075
5.62,-0.075
5.622,-0.07
5.624,-0.065
5.626,-0.065
5.628,-0.06
5.63,-0.065
5.632,-0.065
5.634,-0.07
5.636,-0.075
5.638,-0.08
5.64,-0.08
5.642,-0.08
5.644,-0.075
5.646,-0.07
5.648,-0.065
5.65,-0.06
5.652,-0.055
5.654,-0.055
5.656,-0.06
5.658,-0.06
5.66,-0.06
5.662,-0.065
5.664,-0.06
5.666,-0.06
5.668,-0.055
5.67,-0.055
5.672,-0.05
5.674,-0.055
5.676,-0.055
5.678,-0.06
5.68,-0.065
5.682,-0.07
5.684,-0.07
5.686,-0.07
5.688,-0.07
5.69,-0.065
5.692,-0.06
5.694,-0.055
5.696,-0.055
5.698,-0.05
5.7,-0.05
5.702,-0.05
5.704,-0.055
5.706,-0.055
5.708,-0.055
5.71,-0.055
5.712,-0.055
5.714,-0.05
5.716,-0.05
5.718,-0.05
5.72,-0.05
5.722,-0.05
5.724,-0.05
5.726,-0.055
5.728,-0.055
5.73,-0.05
5.732,-0.05
5.734,-0.045
5.736,-0.04
5.738,-0.035
5.74,-0.03
5.742,-0.03
5.744,-0.035
5.746,-0.04
5.748,-0.045
5.75,-0.055
5.752,-0.06
5.754,-0.065
5.756,-0.07
5.758,-0.07
5.76,-0.065
5.762,-0.065
5.764,-0.06
5.766,-0.055
5.768,-0.05
5.77,-0.05
5.772,-0.045
5.774,-0.045
5.776,-0.045
5.778,-0.045
5.78,-0.05
5.782,-0.05
5.784,-0.055
5.786,-0.055
5.788,-0.06
5.79,-0.06
5.792,-0.055
5.794,-0.055
5.796,-0.05
5.798,-0.045
5.8,-0.04
5.802,-0.035
5.804,-0.035
5.806,-0.04
5.808,-0.045
5.81,-0.05
5.812,-0.055
5.814,-0.055
5.816,-0.06
5.818,-0.06
5.82,-0.06
5.822,-0.055
5.824,-0.055
5.826,-0.055
5.828,-0.055
5.83,-0.055
5.832,-0.06
5.834,-0.06
5.836,-0.065
5.838,-0.065
5.84,-0.065
5.842,-0.065
5.844,-0.06
5.846,-0.06
5.848,-0.06
5.85,-0.06
5.852,-0.055
5.854,-0.055
5.856,-0.055
5.858,-0.05
5.86,-0.05
5.862,-0.05
5.864,-0.05
5.866,-0.05
5.868,-0.05
5.87,-0.05
5.872,-0.045
5.874,-0.045
5.876,-0.04
5.878,-0.035
5.88,-0.03
5.882,-0.02
5.884,-0.015
5.886,-0.015
5.888,-0.01
5.89,-0.005
5.892,0
5.894,0
5.896,0.005
5.898,0.005
5.9,0.005
5.902,0
5.904,-0.005
5.906,-0.01
5.908,-0.02
5.91,-0.03
5.912,-0.04
5.914,-0.05
5.916,-0.055
5.918,-0.055
5.92,-0.06
5.922,-0.06
5.924,-0.06
5.926,-0.06
5.928,-0.06
5.93,-0.065
5.932,-0.065
5.934,-0.065
5.936,-0.065
5.938,-0.065
5.94,-0.06
5.942,-0.055
5.944,-0.05
5.946,-0.045
5.948,-0.045
5.95,-0.05
5.952,-0.055
5.954,-0.06
5.956,-0.065
5.958,-0.065
5.96,-0.07
5.962,-0.07
5.964,-0.065
5.966,-0.065
5.968,-0.06
5.97,-0.06
5.972,-0.06
5.974,-0.06
5.976,-0.06
5.978,-0.065
5.98,-0.065
5.982,-0.07
5.984,-0.07
5.986,-0.065
5.988,-0.055
5.99,-0.035
5.992,-0.005
5.994,0.045
5.996,0.11
5.998,0.19
6,0.285
6.002,0.39
6.004,0.49
6.006,0.575
6.008,0.64
6.01,0.675
6.012,0.67
6.014,0.625
6.016,0.54
6.018,0.42
6.02,0.285
6.022,0.14
6.024,0
6.026,-0.125
6.028,-0.22
6.03,-0.29
6.032,-0.335
6.034,-0.35
6.036,-0.35
6.038,-0.335
6.04,-0.31
6.042,-0.285
6.044,-0.265
6.046,-0.24
6.048,-0.215
6.05,-0.195
6.052,-0.165
6.054,-0.14
6.056,-0.115
6.058,-0.09
6.06,-0.07
6.062,-0.055
6.064,-0.05
6.066,-0.045
6.068,-0.045
6.07,-0.045
6.072,-0.045
6.074,-0.045
6.076,-0.04
6.078,-0.035
6.08,-0.03
6.082,-0.025
6.084,-0.025
6.086,-0.02
6.088,-0.02
6.09,-0.02
6.092,-0.015
6.094,-0.01
6.096,-0.005
6.098,0.005
6.1,0.01
6.102,0.015
6.104,0.02
6.106,0.02
6.108,0.015
6.11,0.01
6.112,0.005
6.114,0
6.116,0
6.118,0
6.12,0
6.122,0
6.124,0.005
6.126,0
6.128,0
6.13,-0.005
6.132,-0.01
6.134,-0.01
6.136,-0.005
6.138,0
6.14,0.005
6.142,0.015
6.144,0.02
6.146,0.03
6.148,0.03
6.15,0.035
6.152,0.035
6.154,0.035
6.156,0.035
6.158,0.04
6.16,0.045
6.162,0.05
6.164,0.055
6.166,0.06
6.168,0.065
6.17,0.07
6.172,0.07
6.174,0.075
6.176,0.08
6.178,0.085
6.18,0.095
6.182,0.105
6.184,0.12
6.186,0.13
6.188,0.14
6.19,0.145
6.192,0.15
6.194,0.155
6.196,0.16
6.198,0.165
6.2,0.175
6.202,0.185
6.204,0.195
6.206,0.205
6.208,0.215
6.21,0.225
6.212,0.23
6.214,0.235
6.216,0.24
6.218,0.24
6.22,0.24
6.222,0.24
6.224,0.245
6.226,0.245
6.228,0.25
6.23,0.25
6.232,0.25
6.234,0.25
6.236,0.245
6.238,0.235
6.24,0.225
6.242,0.21
6.244,0.195
6.246,0.175
6.248,0.16
6.25,0.145
6.252,0.13
6.254,0.115
6.256,0.1
6.258,0.085
6.26,0.07
6.262,0.055
6.264,0.04
6.266,0.025
6.268,0.01
6.27,-0.005
6.272,-0.02
6.274,-0.035
6.276,-0.045
6.278,-0.055
6.28,-0.065
6.282,-0.07
6.284,-0.07
6.286,-0.07
6.288,-0.07
6.29,-0.07
6.292,-0.07
6.294,-0.07
6.296,-0.07
6.298,-0.07
6.3,-0.075
6.302,-0.08
6.304,-0.085
6.306,-0.09
6.308,-0.095
6.31,-0.095
6.312,-0.09
6.314,-0.09
6.316,-0.085
6.318,-0.085
6.32,-0.08
6.322,-0.08
6.324,-0.08
6.326,-0.085
6.328,-0.085
6.33,-0.085
6.332,-0.09
6.334,-0.09
6.336,-0.09
6.338,-0.09
6.34,-0.095
6.342,-0.095
6.344,-0.095
6.346,-0.095
6.348,-0.095
6.35,-0.095
6.352,-0.095
6.354,-0.09
6.356,-0.085
6.358,-0.085
6.36,-0.08
6.362,-0.08
6.364,-0.08
6.366,-0.085
6.368,-0.085
6.37,-0.085
6.372,-0.085
6.374,-0.085
6.376,-0.085
6.378,-0.09
6.38,-0.09
6.382,-0.09
6.384,-0.09
6.386,-0.09
6.388,-0.09
6.39,-0.085
6.392,-0.085
6.394,-0.08
6.396,-0.075
6.398,-0.07
6.4,-0.065
6.402,-0.065
6.404,-0.07
6.406,-0.07
6.408,-0.075
6.41,-0.075
6.412,-0.075
6.414,-0.07
6.416,-0.07
6.418,-0.065
6.42,-0.06
6.422,-0.06
6.424,-0.06
6.426,-0.06
6.428,-0.065
6.43,-0.065
6.432,-0.065
6.434,-0.065
6.436,-0.06
6.438,-0.055
6.44,-0.05
6.442,-0.045
6.444,-0.045
6.446,-0.05
6.448,-0.055
6.45,-0.06
6.452,-0.07
6.454,-0.075
6.456,-0.08
6.458,-0.08
6.46,-0.075
6.462,-0.07
6.464,-0.065
6.466,-0.065
6.468,-0.06
6.47,-0.06
6.472,-0.06
6.474,-0.065
6.476,-0.07
6.478,-0.07
6.48,-0.07
6.482,-0.07
6.484,-0.07
6.486,-0.065
6.488,-0.065
6.49,-0.06
6.492,-0.06
6.494,-0.06
6.496,-0.06
6.498,-0.065
6.5,-0.065
6.502,-0.065
6.504,-0.065
6.506,-0.065
6.508,-0.065
6.51,-0.06
6.512,-0.06
6.514,-0.065
6.516,-0.065
6.518,-0.065
6.52,-0.065
6.522,-0.065
6.524,-0.06
6.526,-0.06
6.528,-0.055
6.53,-0.055
6.532,-0.055
6.534,-0.055
6.536,-0.055
6.538,-0.06
6.54,-0.065
6.542,-0.07
6.544,-0.07
6.546,-0.075
6.548,-0.075
6.55,-0.075
6.552,-0.075
6.554,-0.07
6.556,-0.07
6.558,-0.07
6.56,-0.065
6.562,-0.065
6.564,-0.06
6.566,-0.06
6.568,-0.055
6.57,-0.05
6.572,-0.045
6.574,-0.04
6.576,-0.04
6.578,-0.04
6.58,-0.04
6.582,-0.04
6.584,-0.045
6.586,-0.05
6.588,-0.05
6.59,-0.05
6.592,-0.05
6.594,-0.05
6.596,-0.045
6.598,-0.04
6.6,-0.03
6.602,-0.02
6.604,-0.015
6.606,-0.005
6.608,0
6.61,0.005
6.612,0.005
6.614,0.005
6.616,0
6.618,-0.01
6.62,-0.02
6.622,-0.025
6.624,-0.035
6.626,-0.04
6.628,-0.045
6.63,-0.045
6.632,-0.05
6.634,-0.055
6.636,-0.055
6.638,-0.06
6.64,-0.065
6.642,-0.07
6.644,-0.075
6.646,-0.075
6.648,-0.07
6.65,-0.065
6.652,-0.06
6.654,-0.055
6.656,-0.05
6.658,-0.045
6.66,-0.045
6.662,-0.05
6.664,-0.055
6.666,-0.06
6.668,-0.065
6.67,-0.065
6.672,-0.065
6.674,-0.065
6.676,-0.06
6.678,-0.06
6.68,-0.055
6.682,-0.05
6.684,-0.045
6.686,-0.04
6.688,-0.04
6.69,-0.035
6.692,-0.035
6.694,-0.04
6.696,-0.04
6.698,-0.04
6.7,-0.04
6.702,-0.03
6.704,-0.005
6.706,0.035
6.708,0.09
6.71,0.165
6.712,0.255
6.714,0.355
6.716,0.455
6.718,0.55
6.72,0.62
6.722,0.665
6.724,0.67
6.726,0.64
6.728,0.575
6.73,0.475
6.732,0.355
6.734,0.22
6.736,0.08
6.738,-0.045
6.74,-0.155
6.742,-0.245
6.744,-0.305
6.746,-0.34
6.748,-0.35
6.75,-0.34
6.752,-0.32
6.754,-0.285
6.756,-0.25
6.758,-0.215
6.76,-0.185
6.762,-0.155
6.764,-0.135
6.766,-0.115
6.768,-0.1
6.77,-0.085
6.772,-0.07
6.774,-0.06
6.776,-0.045
6.778,-0.035
6.78,-0.03
6.782,-0.025
6.784,-0.02
6.786,-0.015
6.788,-0.015
6.79,-0.015
6.792,-0.02
6.794,-0.02
6.796,-0.015
6.798,-0.01
6.8,-0.005
6.802,0
6.804,0.01
6.806,0.015
6.808,0.02
6.81,0.025
6.812,0.025
6.814,0.025
6.816,0.02
6.818,0.015
6.82,0.015
6.822,0.015
6.824,0.015
6.826,0.02
6.828,0.025
6.83,0.03
6.832,0.035
6.834,0.035
6.836,0.035
6.838,0.035
6.84,0.035
6.842,0.035
6.844,0.035
6.846,0.04
6.848,0.045
6.85,0.05
6.852,0.055
6.854,0.06
6.856,0.06
6.858,0.065
6.86,0.065
6.862,0.065
6.864,0.07
6.866,0.07
6.868,0.075
6.87,0.08
6.872,0.085
6.874,0.09
6.876,0.095
6.878,0.095
6.88,0.095
6.882,0.095
6.884,0.1
6.886,0.1
6.888,0.105
6.89,0.115
6.892,0.12
6.894,0.13
6.896,0.14
6.898,0.15
6.9,0.16
6.902,0.17
6.904,0.18
6.906,0.19
6.908,0.2
6.91,0.21
6.912,0.22
6.914,0.23
6.916,0.24
6.918,0.245
6.92,0.25
6.922,0.255
6.924,0.255
6.926,0.26
6.928,0.265
6.93,0.265
6.932,0.27
6.934,0.27
6.936,0.27
6.938,0.27
6.94,0.27
6.942,0.265
6.944,0.265
6.946,0.265
6.948,0.26
6.95,0.26
6.952,0.255
6.954,0.245
6.956,0.24
6.958,0.225
6.96,0.21
6.962,0.195
6.964,0.175
6.966,0.16
6.968,0.14
6.97,0.125
6.972,0.11
6.974,0.095
6.976,0.075
6.978,0.06
6.98,0.045
6.982,0.03
6.984,0.015
6.986,0.005
6.988,-0.005
6.99,-0.01
6.992,-0.01
6.994,-0.015
6.996,-0.015
6.998,-0.02
7,-0.03
7.002,-0.04
7.004,-0.05
7.006,-0.055
7.008,-0.065
7.01,-0.065
7.012,-0.06
7.014,-0.06
7.016,-0.05
7.018,-0.045
7.02,-0.045
7.022,-0.045
7.024,-0.045
7.026,-0.05
7.028,-0.055
7.03,-0.06
7.032,-0.065
7.034,-0.065
7.036,-0.065
7.038,-0.065
7.04,-0.06
7.042,-0.06
7.044,-0.06
7.046,-0.06
7.048,-0.065
7.05,-0.065
7.052,-0.065
7.054,-0.06
7.056,-0.06
7.058,-0.055
7.06,-0.045
7.062,-0.045
7.064,-0.04
7.066,-0.04
7.068,-0.045
7.07,-0.05
7.072,-0.055
7.074,-0.06
7.076,-0.06
7.078,-0.06
7.08,-0.06
7.082,-0.05
7.084,-0.045
7.086,-0.035
7.088,-0.03
7.09,-0.025
7.092,-0.025
7.094,-0.03
7.096,-0.035
7.098,-0.04
7.1,-0.045
7.102,-0.05
7.104,-0.05
7.106,-0.05
7.108,-0.05
7.11,-0.045
7.112,-0.045
7.114,-0.045
7.116,-0.045
7.118,-0.045
7.12,-0.045
7.122,-0.05
7.124,-0.045
7.126,-0.045
7.128,-0.04
7.13,-0.035
7.132,-0.03
7.134,-0.025
7.136,-0.02
7.138,-0.02
7.14,-0.02
7.142,-0.02
7.144,-0.02
7.146,-0.025
7.148,-0.025
7.15,-0.03
7.152,-0.03
7.154,-0.03
7.156,-0.035
7.158,-0.035
7.16,-0.035
7.162,-0.04
7.164,-0.04
7.166,-0.045
7.168,-0.045
7.17,-0.05
7.172,-0.05
7.174,-0.05
7.176,-0.05
7.178,-0.055
7.18,-0.05
7.182,-0.05
7.184,-0.05
7.186,-0.045
7.188,-0.04
7.19,-0.04
7.192,-0.035
7.194,-0.035
7.196,-0.035
7.198,-0.035
7.2,-0.04
7.202,-0.045
7.204,-0.045
7.206,-0.05
7.208,-0.05
7.21,-0.05
7.212,-0.05
7.214,-0.045
7.216,-0.045
7.218,-0.045
7.22,-0.04
7.222,-0.04
7.224,-0.04
7.226,-0.04
7.228,-0.04
7.23,-0.04
7.232,-0.045
7.234,-0.045
7.236,-0.05
7.238,-0.055
7.24,-0.06
7.242,-0.06
7.244,-0.065
7.246,-0.065
7.248,-0.065
7.25,-0.06
7.252,-0.055
7.254,-0.05
7.256,-0.045
7.258,-0.04
7.26,-0.04
7.262,-0.035
7.264,-0.035
7.266,-0.04
7.268,-0.04
7.27,-0.045
7.272,-0.05
7.274,-0.05
7.276,-0.055
7.278,-0.055
7.28,-0.055
7.282,-0.055
7.284,-0.055
7.286,-0.055
7.288,-0.055
7.29,-0.05
7.292,-0.05
7.294,-0.045
7.296,-0.045
7.298,-0.04
7.3,-0.04
7.302,-0.035
7.304,-0.03
7.306,-0.025
7.308,-0.02
7.31,-0.015
7.312,-0.01
7.314,0
7.316,0.005
7.318,0.01
7.32,0.01
7.322,0.015
7.324,0.01
7.326,0.01
7.328,0.005
7.33,0
7.332,-0.005
7.334,-0.01
7.336,-0.015
7.338,-0.02
7.34,-0.025
7.342,-0.03
7.344,-0.035
7.346,-0.045
7.348,-0.05
7.35,-0.055
7.352,-0.06
7.354,-0.06
7.356,-0.065
7.358,-0.06
7.36,-0.06
7.362,-0.06
7.364,-0.055
7.366,-0.055
7.368,-0.055
7.37,-0.055
7.372,-0.055
7.374,-0.055
7.376,-0.05
7.378,-0.05
7.38,-0.045
7.382,-0.04
7.384,-0.04
7.386,-0.04
7.388,-0.04
7.39,-0.045
7.392,-0.045
7.394,-0.05
7.396,-0.05
7.398,-0.05
7.4,-0.045
7.402,-0.04
7.404,-0.04
7.406,-0.04
7.408,-0.04
7.41,-0.045
7.412,-0.05
7.414,-0.05
7.416,-0.05
7.418,-0.035
7.42,-0.005
7.422,0.045
7.424,0.11
7.426,0.19
7.428,0.285
7.43,0.38
7.432,0.475
7.434,0.55
7.436,0.605
7.438,0.63
7.44,0.62
7.442,0.57
7.444,0.49
7.446,0.38
7.448,0.255
7.45,0.12
7.452,-0.01
7.454,-0.13
7.456,-0.225
7.458,-0.295
7.46,-0.34
7.462,-0.36
7.464,-0.36
7.466,-0.345
7.468,-0.325
7.47,-0.295
7.472,-0.27
7.474,-0.245
7.476,-0.22
7.478,-0.195
7.48,-0.17
7.482,-0.14
7.484,-0.115
7.486,-0.09
7.488,-0.07
7.49,-0.05
7.492,-0.04
7.494,-0.035
7.496,-0.035
7.498,-0.035
7.5,-0.04
7.502,-0.04
7.504,-0.035
7.506,-0.03
7.508,-0.025
7.51,-0.015
7.512,-0.01
7.514,-0.005
7.516,0
7.518,0
7.52,0
7.522,-0.005
7.524,-0.005
7.526,-0.005
7.528,-0.005
7.53,0
7.532,0.005
7.534,0.01
7.536,0.01
7.538,0.015
7.54,0.015
7.542,0.015
7.544,0.02
7.546,0.02
7.548,0.02
7.55,0.02
7.552,0.02
7.554,0.02
7.556,0.02
7.558,0.025
7.56,0.025
7.562,0.025
7.564,0.025
7.566,0.03
7.568,0.03
7.57,0.035
7.572,0.04
7.574,0.045
7.576,0.045
7.578,0.05
7.58,0.05
7.582,0.055
7.584,0.055
7.586,0.06
7.588,0.065
7.59,0.07
7.592,0.075
7.594,0.08
7.596,0.085
7.598,0.09
7.6,0.095
7.602,0.1
7.604,0.105
7.606,0.11
7.608,0.115
7.61,0.12
7.612,0.13
7.614,0.14
7.616,0.15
7.618,0.16
7.62,0.17
7.622,0.175
7.624,0.18
7.626,0.18
7.628,0.18
7.63,0.18
7.632,0.185
7.634,0.19
7.636,0.2
7.638,0.21
7.64,0.225
7.642,0.235
7.644,0.24
7.646,0.245
7.648,0.245
7.65,0.24
7.652,0.235
7.654,0.235
7.656,0.235
7.658,0.24
7.66,0.245
7.662,0.25
7.664,0.25
7.666,0.25
7.668,0.24
7.67,0.225
7.672,0.205
7.674,0.18
7.676,0.155
7.678,0.135
7.68,0.12
7.682,0.105
7.684,0.09
7.686,0.08
7.688,0.07
7.69,0.06
7.692,0.045
7.694,0.03
7.696,0.015
7.698,0
7.7,-0.015
7.702,-0.025
7.704,-0.03
7.706,-0.035
7.708,-0.04
7.71,-0.045
7.712,-0.05
7.714,-0.055
7.716,-0.06
7.718,-0.065
7.72,-0.065
7.722,-0.065
7.724,-0.065
7.726,-0.065
7.728,-0.065
7.73,-0.065
7.732,-0.065
7.734,-0.065
7.736,-0.07
7.738,-0.07
7.74,-0.075
7.742,-0.075
7.744,-0.075
7.746,-0.075
7.748,-0.08
7.75,-0.08
7.752,-0.09
7.754,-0.095
7.756,-0.1
7.758,-0.105
7.76,-0.105
7.762,-0.1
7.764,-0.095
7.766,-0.085
7.768,-0.08
7.77,-0.075
7.772,-0.075
7.774,-0.08
7.776,-0.085
7.778,-0.09
7.78,-0.095
7.782,-0.1
7.784,-0.1
7.786,-0.095
7.788,-0.09
7.79,-0.08
7.792,-0.08
7.794,-0.075
7.796,-0.08
7.798,-0.085
7.8,-0.09
7.802,-0.095
7.804,-0.095
7.806,-0.095
7.808,-0.09
7.81,-0.08
7.812,-0.075
7.814,-0.065
7.816,-0.065
7.818,-0.065
7.82,-0.065
7.822,-0.075
7.824,-0.08
7.826,-0.085
7.828,-0.09
7.83,-0.085
7.832,-0.085
7.834,-0.08
7.836,-0.075
7.838,-0.07
7.84,-0.065
7.842,-0.065
7.844,-0.065
7.846,-0.07
7.848,-0.07
7.85,-0.075
7.852,-0.075
7.854,-0.075
7.856,-0.07
7.858,-0.07
7.86,-0.065
7.862,-0.065
7.864,-0.06
7.866,-0.06
7.868,-0.06
7.87,-0.06
7.872,-0.065
7.874,-0.065
7.876,-0.065
7.878,-0.065
7.88,-0.07
7.882,-0.07
7.884,-0.075
7.886,-0.075
7.888,-0.08
7.89,-0.08
7.892,-0.08
7.894,-0.075
7.896,-0.07
7.898,-0.065
7.9,-0.065
7.902,-0.06
7.904,-0.065
7.906,-0.07
7.908,-0.075
7.91,-0.08
7.912,-0.085
7.914,-0.085
7.916,-0.085
7.918,-0.08
7.92,-0.075
7.922,-0.07
7.924,-0.065
7.926,-0.06
7.928,-0.06
7.93,-0.06
7.932,-0.065
7.934,-0.07
7.936,-0.07
7.938,-0.07
7.94,-0.07
7.942,-0.07
7.944,-0.07
7.946,-0.07
7.948,-0.07
7.95,-0.075
7.952,-0.075
7.954,-0.08
7.956,-0.08
7.958,-0.08
7.96,-0.075
7.962,-0.07
7.964,-0.065
7.966,-0.055
7.968,-0.05
7.97,-0.05
7.972,-0.05
7.974,-0.05
7.976,-0.055
7.978,-0.06
7.98,-0.06
7.982,-0.06
7.984,-0.065
7.986,-0.065
7.988,-0.065
7.99,-0.07
7.992,-0.075
7.994,-0.08
7.996,-0.085
7.998,-0.085
8,-0.09
8.002,-0.085
8.004,-0.085
8.006,-0.08
8.008,-0.075
8.01,-0.07
8.012,-0.065
8.014,-0.065
8.016,-0.065
8.018,-0.065
8.02,-0.065
8.022,-0.06
8.024,-0.06
8.026,-0.055
8.028,-0.045
8.03,-0.04
8.032,-0.035
8.034,-0.03
8.036,-0.03
8.038,-0.025
8.04,-0.025
8.042,-0.025
8.044,-0.025
8.046,-0.025
8.048,-0.03
8.05,-0.035
8.052,-0.045
8.054,-0.05
8.056,-0.06
8.058,-0.065
8.06,-0.07
8.062,-0.07
8.064,-0.07
8.066,-0.07
8.068,-0.07
8.07,-0.065
8.072,-0.065
8.074,-0.065
8.076,-0.065
8.078,-0.065
8.08,-0.065
8.082,-0.065
8.084,-0.065
8.086,-0.065
8.088,-0.065
8.09,-0.065
8.092,-0.07
8.094,-0.07
8.096,-0.075
8.098,-0.08
8.1,-0.08
8.102,-0.08
8.104,-0.08
8.106,-0.075
8.108,-0.07
8.11,-0.065
8.112,-0.055
8.114,-0.055
8.116,-0.05
8.118,-0.055
8.12,-0.055
8.122,-0.065
8.124,-0.07
8.126,-0.075
8.128,-0.08
8.13,-0.075
8.132,-0.06
8.134,-0.035
8.136,0.01
8.138,0.07
8.14,0.145
8.142,0.235
8.144,0.335
8.146,0.435
8.148,0.52
8.15,0.59
8.152,0.635
8.154,0.64
8.156,0.605
8.158,0.535
8.16,0.435
8.162,0.31
8.164,0.17
8.166,0.03
8.168,-0.095
8.17,-0.205
8.172,-0.285
8.174,-0.34
8.176,-0.37
8.178,-0.375
8.18,-0.365
8.182,-0.34
8.184,-0.315
8.186,-0.285
8.188,-0.255
8.19,-0.225
8.192,-0.2
8.194,-0.175
8.196,-0.15
8.198,-0.13
8.2,-0.11
8.202,-0.09
8.204,-0.075
8.206,-0.06
8.208,-0.05
8.21,-0.045
8.212,-0.035
8.214,-0.035
8.216,-0.03
8.218,-0.025
8.22,-0.025
8.222,-0.02
8.224,-0.02
8.226,-0.02
8.228,-0.015
8.23,-0.015
8.232,-0.015
8.234,-0.015
8.236,-0.01
8.238,-0.01
8.24,-0.005
8.242,0
8.244,0.005
8.246,0.005
8.248,0.005
8.25,0.005
8.252,0.005
8.254,0.005
8.256,0
8.258,0
8.26,0
8.262,0
8.264,0
8.266,0.005
8.268,0.005
8.27,0.01
8.272,0.01
8.274,0.01
8.276,0.01
8.278,0.015
8.28,0.015
8.282,0.015
8.284,0.02
8.286,0.02
8.288,0.025
8.29,0.03
8.292,0.04
8.294,0.045
8.296,0.055
8.298,0.06
8.3,0.065
8.302,0.065
8.304,0.07
8.306,0.07
8.308,0.07
8.31,0.07
8.312,0.07
8.314,0.08
8.316,0.085
8.318,0.095
8.32,0.11
8.322,0.12
8.324,0.135
8.326,0.14
8.328,0.15
8.33,0.15
8.332,0.155
8.334,0.16
8.336,0.16
8.338,0.165
8.34,0.175
8.342,0.185
8.344,0.195
8.346,0.205
8.348,0.215
8.35,0.225
8.352,0.23
8.354,0.235
8.356,0.24
8.358,0.245
8.36,0.25
8.362,0.255
8.364,0.26
8.366,0.265
8.368,0.265
8.37,0.265
8.372,0.265
8.374,0.26
8.376,0.255
8.378,0.25
8.38,0.245
8.382,0.24
8.384,0.23
8.386,0.22
8.388,0.205
8.39,0.19
8.392,0.17
8.394,0.15
8.396,0.13
8.398,0.11
8.4,0.09
8.402,0.075
8.404,0.06
8.406,0.05
8.408,0.04
8.41,0.03
8.412,0.02
8.414,0.005
8.416,-0.005
8.418,-0.02
8.42,-0.03
8.422,-0.04
8.424,-0.05
8.426,-0.055
8.428,-0.055
8.43,-0.055
8.432,-0.055
8.434,-0.05
8.436,-0.05
8.438,-0.055
8.44,-0.055
8.442,-0.06
8.444,-0.065
8.446,-0.07
8.448,-0.075
8.45,-0.075
8.452,-0.07
8.454,-0.07
8.456,-0.065
8.458,-0.06
8.46,-0.055
8.462,-0.055
8.464,-0.06
8.466,-0.06
8.468,-0.065
8.47,-0.065
8.472,-0.065
8.474,-0.065
8.476,-0.065
8.478,-0.06
8.48,-0.06
8.482,-0.06
8.484,-0.065
8.486,-0.065
8.488,-0.07
8.49,-0.075
8.492,-0.075
8.494,-0.075
8.496,-0.07
8.498,-0.07
8.5,-0.065
8.502,-0.065
8.504,-0.06
8.506,-0.06
8.508,-0.065
8.51,-0.065
8.512,-0.065
8.514,-0.065
8.516,-0.065
8.518,-0.06
8.52,-0.06
8.522,-0.055
8.524,-0.055
8.526,-0.05
8.528,-0.05
8.53,-0.05
8.532,-0.05
8.534,-0.045
8.536,-0.04
8.538,-0.04
8.54,-0.035
8.542,-0.035
8.544,-0.035
8.546,-0.035
8.548,-0.04
8.55,-0.04
8.552,-0.045
8.554,-0.045
8.556,-0.04
8.558,-0.04
8.56,-0.035
8.562,-0.03
8.564,-0.03
8.566,-0.035
8.568,-0.04
8.57,-0.045
8.572,-0.045
8.574,-0.05
8.576,-0.05
8.578,-0.05
8.58,-0.045
8.582,-0.045
8.584,-0.04
8.586,-0.04
8.588,-0.04
8.59,-0.04
8.592,-0.045
8.594,-0.05
8.596,-0.05
8.598,-0.05
8.6,-0.05
8.602,-0.05
8.604,-0.05
8.606,-0.05
8.608,-0.05
8.61,-0.05
8.612,-0.05
8.614,-0.055
8.616,-0.055
8.618,-0.05
8.62,-0.045
8.622,-0.045
8.624,-0.04
8.626,-0.04
8.628,-0.04
8.63,-0.045
8.632,-0.05
8.634,-0.05
8.636,-0.055
8.638,-0.055
8.64,-0.055
8.642,-0.045
8.644,-0.04
8.646,-0.035
8.648,-0.03
8.65,-0.03
8.652,-0.03
8.654,-0.035
8.656,-0.04
8.658,-0.045
8.66,-0.05
8.662,-0.05
8.664,-0.05
8.666,-0.05
8.668,-0.05
8.67,-0.05
8.672,-0.05
8.674,-0.05
8.676,-0.055
8.678,-0.055
8.68,-0.055
8.682,-0.05
8.684,-0.05
8.686,-0.045
8.688,-0.04
8.69,-0.035
8.692,-0.03
8.694,-0.03
8.696,-0.035
8.698,-0.035
8.7,-0.04
8.702,-0.045
8.704,-0.045
8.706,-0.05
8.708,-0.045
8.71,-0.045
8.712,-0.04
8.714,-0.035
8.716,-0.035
8.718,-0.03
8.72,-0.035
8.722,-0.035
8.724,-0.035
8.726,-0.04
8.728,-0.035
8.73,-0.03
8.732,-0.025
8.734,-0.015
8.736,-0.005
8.738,0.005
8.74,0.01
8.742,0.01
8.744,0.01
8.746,0.01
8.748,0
8.75,-0.005
8.752,-0.015
8.754,-0.025
8.756,-0.035
8.758,-0.04
8.76,-0.05
8.762,-0.055
8.764,-0.055
8.766,-0.055
8.768,-0.05
8.77,-0.045
8.772,-0.04
8.774,-0.035
8.776,-0.03
8.778,-0.03
8.78,-0.03
8.782,-0.035
8.784,-0.045
8.786,-0.05
8.788,-0.055
8.79,-0.06
8.792,-0.06
8.794,-0.06
8.796,-0.06
8.798,-0.055
8.8,-0.055
8.802,-0.055
8.804,-0.06
8.806,-0.065
8.808,-0.07
8.81,-0.075
8.812,-0.075
8.814,-0.07
8.816,-0.065
8.818,-0.06
8.82,-0.05
8.822,-0.045
8.824,-0.045
8.826,-0.045
8.828,-0.05
8.83,-0.05
8.832,-0.04
8.834,-0.02
8.836,0.015
8.838,0.075
8.84,0.15
8.842,0.24
8.844,0.345
8.846,0.445
8.848,0.54
8.85,0.61
8.852,0.65
8.854,0.655
8.856,0.625
8.858,0.555
8.86,0.455
8.862,0.33
8.864,0.195
8.866,0.06
8.868,-0.065
8.87,-0.17
8.872,-0.25
8.874,-0.305
8.876,-0.335
8.878,-0.345
8.88,-0.335
8.882,-0.32
8.884,-0.295
8.886,-0.265
8.888,-0.235
8.89,-0.205
8.892,-0.18
8.894,-0.155
8.896,-0.13
8.898,-0.105
8.9,-0.085
8.902,-0.07
8.904,-0.055
8.906,-0.045
8.908,-0.04
8.91,-0.04
8.912,-0.04
8.914,-0.035
8.916,-0.03
8.918,-0.025
8.92,-0.02
8.922,-0.01
8.924,-0.005
8.926,-0.005
8.928,0
8.93,-0.005
8.932,-0.01
8.934,-0.01
8.936,-0.015
8.938,-0.015
8.94,-0.015
8.942,-0.01
8.944,-0.005
8.946,0.005
8.948,0.01
8.95,0.015
8.952,0.02
8.954,0.025
8.956,0.025
8.958,0.03
8.96,0.03
8.962,0.025
8.964,0.025
8.966,0.025
8.968,0.025
8.97,0.025
8.972,0.025
8.974,0.025
8.976,0.025
8.978,0.03
8.98,0.035
8.982,0.04
8.984,0.05
8.986,0.055
8.988,0.06
8.99,0.07
8.992,0.07
8.994,0.075
8.996,0.075
8.998,0.07
9,0.07
9.002,0.07
9.004,0.07
9.006,0.075
9.008,0.075
9.01,0.085
9.012,0.09
9.014,0.1
9.016,0.105
9.018,0.115
9.02,0.12
9.022,0.125
9.024,0.13
9.026,0.14
9.028,0.145
9.03,0.155
9.032,0.165
9.034,0.17
9.036,0.18
9.038,0.19
9.04,0.195
9.042,0.205
9.044,0.21
9.046,0.22
9.048,0.225
9.05,0.235
9.052,0.245
9.054,0.255
9.056,0.265
9.058,0.27
9.06,0.28
9.062,0.285
9.064,0.285
9.066,0.29
9.068,0.285
9.07,0.285
9.072,0.28
9.074,0.275
9.076,0.265
9.078,0.26
9.08,0.255
9.082,0.245
9.084,0.235
9.086,0.225
9.088,0.215
9.09,0.2
9.092,0.18
9.094,0.16
9.096,0.14
9.098,0.115
9.1,0.095
9.102,0.075
9.104,0.055
9.106,0.045
9.108,0.03
9.11,0.025
9.112,0.015
9.114,0.01
9.116,0
9.118,-0.005
9.12,-0.01
9.122,-0.02
9.124,-0.025
9.126,-0.025
9.128,-0.025
9.13,-0.025
9.132,-0.025
9.134,-0.03
9.136,-0.03
9.138,-0.035
9.14,-0.04
9.142,-0.05
9.144,-0.055
9.146,-0.06
9.148,-0.065
9.15,-0.065
9.152,-0.065
9.154,-0.06
9.156,-0.055
9.158,-0.055
9.16,-0.055
9.162,-0.06
9.164,-0.065
9.166,-0.07
9.168,-0.075
9.17,-0.08
9.172,-0.08
9.174,-0.075
9.176,-0.07
9.178,-0.06
9.18,-0.055
9.182,-0.055
9.184,-0.05
9.186,-0.055
9.188,-0.055
9.19,-0.06
9.192,-0.06
9.194,-0.06
9.196,-0.06
9.198,-0.06
9.2,-0.055
9.202,-0.055
9.204,-0.055
9.206,-0.055
9.208,-0.06
9.21,-0.06
9.212,-0.065
9.214,-0.065
9.216,-0.065
9.218,-0.065
9.22,-0.065
9.222,-0.06
9.224,-0.06
9.226,-0.055
9.228,-0.06
9.23,-0.06
9.232,-0.06
9.234,-0.065
9.236,-0.065
9.238,-0.06
9.24,-0.06
9.242,-0.055
9.244,-0.05
9.246,-0.045
9.248,-0.045
9.25,-0.045
9.252,-0.05
9.254,-0.05
9.256,-0.05
9.258,-0.055
9.26,-0.055
9.262,-0.05
9.264,-0.045
9.266,-0.04
9.268,-0.03
9.27,-0.03
9.272,-0.025
9.274,-0.025
9.276,-0.03
9.278,-0.04
9.28,-0.045
9.282,-0.055
9.284,-0.06
9.286,-0.06
9.288,-0.06
9.29,-0.055
9.292,-0.05
9.294,-0.045
9.296,-0.04
9.298,-0.035
9.3,-0.03
9.302,-0.035
9.304,-0.035
9.306,-0.04
9.308,-0.04
9.31,-0.045
9.312,-0.045
9.314,-0.045
9.316,-0.045
9.318,-0.04
9.32,-0.04
9.322,-0.04
9.324,-0.04
9.326,-0.04
9.328,-0.04
9.33,-0.04
9.332,-0.04
9.334,-0.04
9.336,-0.045
9.338,-0.045
9.34,-0.045
9.342,-0.045
9.344,-0.045
9.346,-0.04
9.348,-0.04
9.35,-0.035
9.352,-0.035
9.354,-0.035
9.356,-0.035
9.358,-0.04
9.36,-0.045
9.362,-0.055
9.364,-0.06
9.366,-0.065
9.368,-0.065
9.37,-0.065
9.372,-0.06
9.374,-0.055
9.376,-0.045
9.378,-0.04
9.38,-0.04
9.382,-0.035
9.384,-0.04
9.386,-0.04
9.388,-0.045
9.39,-0.045
9.392,-0.045
9.394,-0.04
9.396,-0.04
9.398,-0.035
9.4,-0.03
9.402,-0.035
9.404,-0.035
9.406,-0.04
9.408,-0.045
9.41,-0.05
9.412,-0.05
9.414,-0.05
9.416,-0.045
9.418,-0.04
9.42,-0.03
9.422,-0.025
9.424,-0.015
9.426,-0.01
9.428,-0.005
9.43,-0.005
9.432,0
9.434,0
9.436,0.005
9.438,0.005
9.44,0.01
9.442,0.005
9.444,0.005
9.446,-0.005
9.448,-0.01
9.45,-0.02
9.452,-0.03
9.454,-0.04
9.456,-0.05
9.458,-0.05
9.46,-0.055
9.462,-0.055
9.464,-0.05
9.466,-0.05
9.468,-0.045
9.47,-0.045
9.472,-0.045
9.474,-0.05
9.476,-0.05
9.478,-0.055
9.48,-0.055
9.482,-0.06
9.484,-0.06
9.486,-0.065
9.488,-0.065
9.49,-0.065
9.492,-0.065
9.494,-0.065
9.496,-0.06
9.498,-0.06
9.5,-0.055
9.502,-0.05
9.504,-0.05
9.506,-0.05
9.508,-0.05
9.51,-0.05
9.512,-0.05
9.514,-0.055
9.516,-0.06
9.518,-0.06
9.52,-0.06
9.522,-0.055
9.524,-0.055
9.526,-0.055
9.528,-0.055
9.53,-0.055
9.532,-0.06
9.534,-0.055
9.536,-0.04
9.538,-0.015
9.54,0.035
9.542,0.1
9.544,0.19
9.546,0.295
9.548,0.4
9.55,0.505
9.552,0.59
9.554,0.65
9.556,0.67
9.558,0.65
9.56,0.59
9.562,0.495
9.564,0.375
9.566,0.24
9.568,0.105
9.57,-0.02
9.572,-0.135
9.574,-0.225
9.576,-0.29
9.578,-0.33
9.58,-0.35
9.582,-0.355
9.584,-0.345
9.586,-0.325
9.588,-0.295
9.59,-0.27
9.592,-0.24
9.594,-0.21
9.596,-0.18
9.598,-0.15
9.6,-0.125
9.602,-0.1
9.604,-0.08
9.606,-0.065
9.608,-0.05
9.61,-0.04
9.612,-0.035
9.614,-0.03
9.616,-0.03
9.618,-0.035
9.62,-0.035
9.622,-0.04
9.624,-0.04
9.626,-0.04
9.628,-0.035
9.63,-0.03
9.632,-0.025
9.634,-0.025
9.636,-0.02
9.638,-0.02
9.64,-0.02
9.642,-0.02
9.644,-0.02
9.646,-0.015
9.648,-0.01
9.65,-0.005
9.652,0.005
9.654,0.01
9.656,0.01
9.658,0.01
9.66,0.01
9.662,0.005
9.664,0.005
9.666,0
9.668,0
9.67,0
9.672,0
9.674,0.005
9.676,0.01
9.678,0.01
9.68,0.015
9.682,0.015
9.684,0.02
9.686,0.02
9.688,0.02
9.69,0.025
9.692,0.03
9.694,0.035
9.696,0.04
9.698,0.05
9.7,0.055
9.702,0.055
9.704,0.06
9.706,0.065
9.708,0.065
9.71,0.07
9.712,0.08
9.714,0.085
9.716,0.09
9.718,0.095
9.72,0.1
9.722,0.105
9.724,0.11
9.726,0.11
9.728,0.115
9.73,0.12
9.732,0.13
9.734,0.135
9.736,0.145
9.738,0.16
9.74,0.17
9.742,0.18
9.744,0.19
9.746,0.2
9.748,0.205
9.75,0.21
9.752,0.215
9.754,0.22
9.756,0.225
9.758,0.23
9.76,0.235
9.762,0.24
9.764,0.25
9.766,0.255
9.768,0.26
9.77,0.265
9.772,0.265
9.774,0.26
9.776,0.26
9.778,0.25
9.78,0.245
9.782,0.24
9.784,0.23
9.786,0.225
9.788,0.215
9.79,0.205
9.792,0.19
9.794,0.175
9.796,0.155
9.798,0.13
9.8,0.11
9.802,0.085
9.804,0.065
9.806,0.045
9.808,0.03
9.81,0.02
9.812,0.01
9.814,0
9.816,-0.005
9.818,-0.01
9.82,-0.02
9.822,-0.025
9.824,-0.035
9.826,-0.04
9.828,-0.045
9.83,-0.055
9.832,-0.06
9.834,-0.06
9.836,-0.065
9.838,-0.065
9.84,-0.065
9.842,-0.07
9.844,-0.07
9.846,-0.07
9.848,-0.075
9.85,-0.08
9.852,-0.085
9.854,-0.09
9.856,-0.095
9.858,-0.095
9.86,-0.1
9.862,-0.1
9.864,-0.095
9.866,-0.09
9.868,-0.085
9.87,-0.08
9.872,-0.08
9.874,-0.075
9.876,-0.075
9.878,-0.075
9.88,-0.075
9.882,-0.075
9.884,-0.075
9.886,-0.08
9.888,-0.08
9.89,-0.08
9.892,-0.08
9.894,-0.085
9.896,-0.085
9.898,-0.085
9.9,-0.09
9.902,-0.09
9.904,-0.085
9.906,-0.085
9.908,-0.08
9.91,-0.08
9.912,-0.075
9.914,-0.075
9.916,-0.075
9.918,-0.075
9.92,-0.08
9.922,-0.08
9.924,-0.085
9.926,-0.085
9.928,-0.085
9.93,-0.085
9.932,-0.085
9.934,-0.085
9.936,-0.09
9.938,-0.09
9.94,-0.09
9.942,-0.09
9.944,-0.09
9.946,-0.085
9.948,-0.08
9.95,-0.075
9.952,-0.07
9.954,-0.07
9.956,-0.07
9.958,-0.07
9.96,-0.075
9.962,-0.075
9.964,-0.075
9.966,-0.075
9.968,-0.075
9.97,-0.07
9.972,-0.065
9.974,-0.065
9.976,-0.06
9.978,-0.06
9.98,-0.065
9.982,-0.065
9.984,-0.065
9.986,-0.065
9.988,-0.065
9.99,-0.065
9.992,-0.06
9.994,-0.055
9.996,-0.055
9.998,-0.06
