0,0.02
0.002,-0.04
0.004,-0.06
0.006,-0.07
0.008,-0.055
0.01,-0.025
0.012,0.015
0.014,0.05
0.016,0.075
0.018,0.075
0.02,0.055
0.022,0.025
0.024,-0.01
0.026,-0.035
0.028,-0.045
0.03,-0.04
0.032,-0.02
0.034,0.005
0.036,0.03
0.038,0.05
0.04,0.055
0.042,0.045
0.044,0.03
0.046,0.015
0.048,0.005
0.05,-0.005
0.052,-0.005
0.054,0
0.056,0.005
0.058,0.005
0.06,-0.005
0.062,-0.015
0.064,-0.025
0.066,-0.035
0.068,-0.035
0.07,-0.03
0.072,-0.02
0.074,-0.01
0.076,0.005
0.078,0.01
0.08,0.005
0.082,-0.005
0.084,-0.015
0.086,-0.03
0.088,-0.045
0.09,-0.05
0.092,-0.045
0.094,-0.035
0.096,-0.025
0.098,-0.01
0.1,-0.005
0.102,0
0.104,-0.005
0.106,-0.015
0.108,-0.03
0.11,-0.04
0.112,-0.045
0.114,-0.045
0.116,-0.04
0.118,-0.03
0.12,-0.015
0.122,-0.005
0.124,0.005
0.126,0.01
0.128,0.01
0.13,0.005
0.132,0
0.134,-0.005
0.136,-0.01
0.138,-0.015
0.14,-0.01
0.142,0
0.144,0.01
0.146,0.025
0.148,0.035
0.15,0.045
0.152,0.055
0.154,0.055
0.156,0.055
0.158,0.05
0.16,0.045
0.162,0.04
0.164,0.035
0.166,0.035
0.168,0.03
0.17,0.03
0.172,0.025
0.174,0.02
0.176,0.015
0.178,0.005
0.18,0
0.182,-0.01
0.184,-0.015
0.186,-0.025
0.188,-0.03
0.19,-0.035
0.192,-0.04
0.194,-0.05
0.196,-0.055
0.198,-0.055
0.2,-0.055
0.202,-0.055
0.204,-0.05
0.206,-0.045
0.208,-0.04
0.21,-0.035
0.212,-0.03
0.214,-0.03
0.216,-0.03
0.218,-0.035
0.22,-0.04
0.222,-0.045
0.224,-0.05
0.226,-0.05
0.228,-0.055
0.23,-0.055
0.232,-0.05
0.234,-0.05
0.236,-0.045
0.238,-0.045
0.24,-0.04
0.242,-0.04
0.244,-0.035
0.246,-0.03
0.248,-0.03
0.25,-0.025
0.252,-0.025
0.254,-0.025
0.256,-0.03
0.258,-0.035
0.26,-0.045
0.262,-0.055
0.264,-0.065
0.266,-0.07
0.268,-0.075
0.27,-0.08
0.272,-0.08
0.274,-0.08
0.276,-0.075
0.278,-0.065
0.28,-0.055
0.282,-0.035
0.284,-0.005
0.286,0.045
0.288,0.105
0.29,0.19
0.292,0.295
0.294,0.415
0.296,0.54
0.298,0.665
0.3,0.775
0.302,0.855
0.304,0.895
0.306,0.885
0.308,0.83
0.31,0.735
0.312,0.61
0.314,0.465
0.316,0.325
0.318,0.195
0.32,0.09
0.322,0.015
0.324,-0.025
0.326,-0.045
0.328,-0.04
0.33,-0.03
0.332,-0.02
0.334,-0.005
0.336,0
0.338,0
0.34,-0.005
0.342,-0.01
0.344,-0.015
0.346,-0.02
0.348,-0.02
0.35,-0.02
0.352,-0.02
0.354,-0.02
0.356,-0.025
0.358,-0.025
0.36,-0.03
0.362,-0.035
0.364,-0.035
0.366,-0.03
0.368,-0.025
0.37,-0.02
0.372,-0.015
0.374,-0.01
0.376,-0.01
0.378,-0.01
0.38,-0.015
0.382,-0.02
0.384,-0.025
0.386,-0.03
0.388,-0.035
0.39,-0.035
0.392,-0.035
0.394,-0.035
0.396,-0.035
0.398,-0.03
0.4,-0.035
0.402,-0.04
0.404,-0.045
0.406,-0.055
0.408,-0.07
0.41,-0.075
0.412,-0.08
0.414,-0.08
0.416,-0.075
0.418,-0.06
0.42,-0.04
0.422,-0.02
0.424,-0.005
0.426,0.005
0.428,0.01
0.43,0.01
0.432,0.005
0.434,-0.005
0.436,-0.02
0.438,-0.025
0.44,-0.03
0.442,-0.03
0.444,-0.02
0.446,-0.01
0.448,0
0.45,0.01
0.452,0.015
0.454,0.02
0.456,0.015
0.458,0.01
0.46,0
0.462,-0.01
0.464,-0.02
0.466,-0.025
0.468,-0.02
0.47,-0.015
0.472,-0.005
0.474,0.01
0.476,0.02
0.478,0.025
0.48,0.025
0.482,0.02
0.484,0.01
0.486,-0.005
0.488,-0.015
0.49,-0.025
0.492,-0.025
0.494,-0.02
0.496,-0.005
0.498,0.015
0.5,0.035
0.502,0.055
0.504,0.07
0.506,0.075
0.508,0.075
0.51,0.07
0.512,0.065
0.514,0.065
0.516,0.065
0.518,0.07
0.52,0.075
0.522,0.09
0.524,0.1
0.526,0.11
0.528,0.12
0.53,0.12
0.532,0.125
0.534,0.125
0.536,0.125
0.538,0.13
0.54,0.135
0.542,0.145
0.544,0.155
0.546,0.165
0.548,0.17
0.55,0.17
0.552,0.165
0.554,0.155
0.556,0.145
0.558,0.14
0.56,0.135
0.562,0.135
0.564,0.14
0.566,0.15
0.568,0.165
0.57,0.175
0.572,0.19
0.574,0.2
0.576,0.2
0.578,0.2
0.58,0.19
0.582,0.175
0.584,0.16
0.586,0.145
0.588,0.13
0.59,0.12
0.592,0.12
0.594,0.12
0.596,0.125
0.598,0.13
0.6,0.13
0.602,0.13
0.604,0.115
0.606,0.1
0.608,0.075
0.61,0.045
0.612,0.02
0.614,-0.005
0.616,-0.02
0.618,-0.03
0.62,-0.03
0.622,-0.03
0.624,-0.03
0.626,-0.035
0.628,-0.04
0.63,-0.055
0.632,-0.07
0.634,-0.085
0.636,-0.095
0.638,-0.1
0.64,-0.1
0.642,-0.095
0.644,-0.085
0.646,-0.075
0.648,-0.07
0.65,-0.07
0.652,-0.075
0.654,-0.085
0.656,-0.1
0.658,-0.115
0.66,-0.125
0.662,-0.125
0.664,-0.125
0.666,-0.115
0.668,-0.1
0.67,-0.085
0.672,-0.075
0.674,-0.07
0.676,-0.07
0.678,-0.075
0.68,-0.085
0.682,-0.095
0.684,-0.1
0.686,-0.105
0.688,-0.105
0.69,-0.1
0.692,-0.095
0.694,-0.085
0.696,-0.08
0.698,-0.075
0.7,-0.075
0.702,-0.08
0.704,-0.09
0.706,-0.095
0.708,-0.1
0.71,-0.1
0.712,-0.095
0.714,-0.085
0.716,-0.075
0.718,-0.06
0.72,-0.05
0.722,-0.045
0.724,-0.045
0.726,-0.055
0.728,-0.07
0.73,-0.09
0.732,-0.11
0.734,-0.12
0.736,-0.125
0.738,-0.125
0.74,-0.115
0.742,-0.105
0.744,-0.09
0.746,-0.08
0.748,-0.08
0.75,-0.085
0.752,-0.095
0.754,-0.105
0.756,-0.12
0.758,-0.125
0.76,-0.125
0.762,-0.12
0.764,-0.11
0.766,-0.095
0.768,-0.085
0.77,-0.075
0.772,-0.07
0.774,-0.07
0.776,-0.07
0.778,-0.08
0.78,-0.085
0.782,-0.09
0.784,-0.09
0.786,-0.09
0.788,-0.09
0.79,-0.095
0.792,-0.1
0.794,-0.105
0.796,-0.11
0.798,-0.115
0.8,-0.12
0.802,-0.12
0.804,-0.12
0.806,-0.115
0.808,-0.105
0.81,-0.1
0.812,-0.095
0.814,-0.095
0.816,-0.1
0.818,-0.105
0.82,-0.11
0.822,-0.115
0.824,-0.12
0.826,-0.115
0.828,-0.115
0.83,-0.11
0.832,-0.1
0.834,-0.095
0.836,-0.095
0.838,-0.09
0.84,-0.095
0.842,-0.095
0.844,-0.1
0.846,-0.105
0.848,-0.11
0.85,-0.115
0.852,-0.115
0.854,-0.115
0.856,-0.12
0.858,-0.12
0.86,-0.12
0.862,-0.12
0.864,-0.12
0.866,-0.115
0.868,-0.11
0.87,-0.105
0.872,-0.095
0.874,-0.09
0.876,-0.085
0.878,-0.085
0.88,-0.085
0.882,-0.095
0.884,-0.105
0.886,-0.12
0.888,-0.13
0.89,-0.14
0.892,-0.14
0.894,-0.14
0.896,-0.135
0.898,-0.13
0.9,-0.12
0.902,-0.11
0.904,-0.105
0.906,-0.1
0.908,-0.1
0.91,-0.105
0.912,-0.105
0.914,-0.11
0.916,-0.11
0.918,-0.11
0.92,-0.11
0.922,-0.11
0.924,-0.11
0.926,-0.115
0.928,-0.12
0.93,-0.125
0.932,-0.13
0.934,-0.135
0.936,-0.135
0.938,-0.135
0.94,-0.135
0.942,-0.13
0.944,-0.12
0.946,-0.11
0.948,-0.105
0.95,-0.1
0.952,-0.095
0.954,-0.09
0.956,-0.09
0.958,-0.09
0.96,-0.095
0.962,-0.09
0.964,-0.09
0.966,-0.08
0.968,-0.07
0.97,-0.06
0.972,-0.05
0.974,-0.04
0.976,-0.035
0.978,-0.035
0.98,-0.035
0.982,-0.045
0.984,-0.055
0.986,-0.065
0.988,-0.075
0.99,-0.08
0.992,-0.085
0.994,-0.085
0.996,-0.08
0.998,-0.08
1,-0.08
1.002,-0.08
1.004,-0.09
1.006,-0.095
1.008,-0.105
1.01,-0.115
1.012,-0.125
1.014,-0.125
1.016,-0.125
1.018,-0.12
1.02,-0.115
1.022,-0.115
1.024,-0.11
1.026,-0.11
1.028,-0.115
1.03,-0.125
1.032,-0.13
1.034,-0.135
1.036,-0.135
1.038,-0.135
1.04,-0.13
1.042,-0.125
1.044,-0.12
1.046,-0.115
1.048,-0.11
1.05,-0.11
1.052,-0.115
1.054,-0.12
1.056,-0.125
1.058,-0.13
1.06,-0.135
1.062,-0.135
1.064,-0.135
1.066,-0.135
1.068,-0.13
1.07,-0.13
1.072,-0.125
1.074,-0.125
1.076,-0.125
1.078,-0.125
1.08,-0.125
1.082,-0.125
1.084,-0.125
1.086,-0.13
1.088,-0.13
1.09,-0.135
1.092,-0.14
1.094,-0.145
1.096,-0.155
1.098,-0.16
1.1,-0.165
1.102,-0.17
1.104,-0.165
1.106,-0.145
1.108,-0.11
1.11,-0.055
1.112,0.025
1.114,0.125
1.116,0.245
1.118,0.375
1.12,0.51
1.122,0.63
1.124,0.73
1.126,0.8
1.128,0.83
1.13,0.82
1.132,0.765
1.134,0.675
1.136,0.56
1.138,0.425
1.14,0.29
1.142,0.16
1.144,0.05
1.146,-0.035
1.148,-0.09
1.15,-0.12
1.152,-0.13
1.154,-0.115
1.156,-0.095
1.158,-0.075
1.16,-0.055
1.162,-0.045
1.164,-0.04
1.166,-0.05
1.168,-0.065
1.17,-0.085
1.172,-0.1
1.174,-0.11
1.176,-0.115
1.178,-0.115
1.18,-0.105
1.182,-0.1
1.184,-0.09
1.186,-0.09
1.188,-0.09
1.19,-0.095
1.192,-0.1
1.194,-0.105
1.196,-0.105
1.198,-0.105
1.2,-0.105
1.202,-0.1
1.204,-0.1
1.206,-0.095
1.208,-0.1
1.21,-0.1
1.212,-0.105
1.214,-0.11
1.216,-0.115
1.218,-0.115
1.22,-0.11
1.222,-0.1
1.224,-0.09
1.226,-0.08
1.228,-0.07
1.23,-0.07
1.232,-0.07
1.234,-0.075
1.236,-0.08
1.238,-0.085
1.24,-0.085
1.242,-0.085
1.244,-0.08
1.246,-0.07
1.248,-0.065
1.25,-0.055
1.252,-0.05
1.254,-0.05
1.256,-0.055
1.258,-0.06
1.26,-0.07
1.262,-0.075
1.264,-0.075
1.266,-0.07
1.268,-0.065
1.27,-0.055
1.272,-0.045
1.274,-0.04
1.276,-0.035
1.278,-0.04
1.28,-0.04
1.282,-0.045
1.284,-0.05
1.286,-0.05
1.288,-0.05
1.29,-0.045
1.292,-0.035
1.294,-0.03
1.296,-0.02
1.298,-0.015
1.3,-0.015
1.302,-0.02
1.304,-0.02
1.306,-0.025
1.308,-0.03
1.31,-0.035
1.312,-0.03
1.314,-0.03
1.316,-0.025
1.318,-0.02
1.32,-0.01
1.322,-0.005
1.324,0
1.326,0.005
1.328,0.01
1.33,0.015
1.332,0.025
1.334,0.03
1.336,0.035
1.338,0.04
1.34,0.045
1.342,0.045
1.344,0.05
1.346,0.055
1.348,0.065
1.35,0.075
1.352,0.09
1.354,0.105
1.356,0.115
1.358,0.125
1.36,0.13
1.362,0.13
1.364,0.13
1.366,0.125
1.368,0.12
1.37,0.115
1.372,0.115
1.374,0.12
1.376,0.13
1.378,0.14
1.38,0.15
1.382,0.16
1.384,0.165
1.386,0.17
1.388,0.175
1.39,0.175
1.392,0.175
1.394,0.18
1.396,0.185
1.398,0.19
1.4,0.2
1.402,0.205
1.404,0.205
1.406,0.2
1.408,0.195
1.41,0.18
1.412,0.165
1.414,0.15
1.416,0.135
1.418,0.12
1.42,0.11
1.422,0.1
1.424,0.095
1.426,0.09
1.428,0.085
1.43,0.075
1.432,0.065
1.434,0.05
1.436,0.035
1.438,0.025
1.44,0.015
1.442,0.005
1.444,0
1.446,0
1.448,0
1.45,0
1.452,0
1.454,-0.005
1.456,-0.01
1.458,-0.02
1.46,-0.025
1.462,-0.035
1.464,-0.04
1.466,-0.045
1.468,-0.045
1.47,-0.04
1.472,-0.04
1.474,-0.035
1.476,-0.035
1.478,-0.035
1.48,-0.035
1.482,-0.04
1.484,-0.045
1.486,-0.05
1.488,-0.055
1.49,-0.055
1.492,-0.055
1.494,-0.055
1.496,-0.05
1.498,-0.05
1.5,-0.045
1.502,-0.04
1.504,-0.04
1.506,-0.04
1.508,-0.035
1.51,-0.035
1.512,-0.035
1.514,-0.035
1.516,-0.035
1.518,-0.03
1.52,-0.03
1.522,-0.03
1.524,-0.03
1.526,-0.025
1.528,-0.025
1.53,-0.025
1.532,-0.025
1.534,-0.02
1.536,-0.015
1.538,-0.015
1.54,-0.01
1.542,-0.005
1.544,-0.005
1.546,0
1.548,-0.005
1.55,-0.005
1.552,-0.01
1.554,-0.015
1.556,-0.02
1.558,-0.025
1.56,-0.02
1.562,-0.02
1.564,-0.01
1.566,-0.005
1.568,0.005
1.57,0.01
1.572,0.01
1.574,0.01
1.576,0.005
1.578,0
1.58,-0.005
1.582,-0.01
1.584,-0.01
1.586,-0.005
1.588,0
1.59,0.005
1.592,0.005
1.594,0.01
1.596,0.005
1.598,0
1.6,-0.005
1.602,-0.01
1.604,-0.01
1.606,-0.01
1.608,0
1.61,0.005
1.612,0.015
1.614,0.02
1.616,0.02
1.618,0.015
1.62,0.005
1.622,-0.005
1.624,-0.015
1.626,-0.02
1.628,-0.02
1.63,-0.02
1.632,-0.01
1.634,0
1.636,0.01
1.638,0.015
1.64,0.015
1.642,0.01
1.644,0
1.646,-0.01
1.648,-0.02
1.65,-0.02
1.652,-0.02
1.654,-0.015
1.656,-0.005
1.658,0.01
1.66,0.015
1.662,0.02
1.664,0.02
1.666,0.015
1.668,0.01
1.67,0.005
1.672,0
1.674,0
1.676,0.005
1.678,0.01
1.68,0.02
1.682,0.025
1.684,0.025
1.686,0.02
1.688,0.015
1.69,0
1.692,-0.01
1.694,-0.025
1.696,-0.035
1.698,-0.04
1.7,-0.04
1.702,-0.03
1.704,-0.02
1.706,-0.005
1.708,0.01
1.71,0.025
1.712,0.035
1.714,0.04
1.716,0.04
1.718,0.03
1.72,0.025
1.722,0.01
1.724,0
1.726,-0.005
1.728,-0.01
1.73,-0.005
1.732,0
1.734,0.005
1.736,0.015
1.738,0.02
1.74,0.03
1.742,0.03
1.744,0.035
1.746,0.035
1.748,0.03
1.75,0.03
1.752,0.03
1.754,0.03
1.756,0.03
1.758,0.025
1.76,0.02
1.762,0.015
1.764,0.005
1.766,0
1.768,-0.01
1.77,-0.01
1.772,-0.01
1.774,-0.005
1.776,0
1.778,0.01
1.78,0.025
1.782,0.035
1.784,0.05
1.786,0.055
1.788,0.06
1.79,0.065
1.792,0.065
1.794,0.07
1.796,0.07
1.798,0.075
1.8,0.08
1.802,0.085
1.804,0.09
1.806,0.095
1.808,0.1
1.81,0.1
1.812,0.1
1.814,0.1
1.816,0.095
1.818,0.09
1.82,0.085
1.822,0.085
1.824,0.08
1.826,0.08
1.828,0.075
1.83,0.07
1.832,0.065
1.834,0.06
1.836,0.055
1.838,0.05
1.84,0.045
1.842,0.04
1.844,0.035
1.846,0.03
1.848,0.025
1.85,0.02
1.852,0.015
1.854,0.015
1.856,0.01
1.858,0.015
1.86,0.015
1.862,0.015
1.864,0.02
1.866,0.02
1.868,0.02
1.87,0.02
1.872,0.02
1.874,0.015
1.876,0.01
1.878,0.005
1.88,0
1.882,0
1.884,0
1.886,0
1.888,0.005
1.89,0.005
1.892,0.01
1.894,0.015
1.896,0.015
1.898,0.02
1.9,0.025
1.902,0.03
1.904,0.035
1.906,0.04
1.908,0.04
1.91,0.04
1.912,0.035
1.914,0.025
1.916,0.015
1.918,0.005
1.92,-0.01
1.922,-0.025
1.924,-0.035
1.926,-0.045
1.928,-0.045
1.93,-0.04
1.932,-0.025
1.934,0.005
1.936,0.05
1.938,0.12
1.94,0.21
1.942,0.325
1.944,0.45
1.946,0.585
1.948,0.715
1.95,0.83
1.952,0.92
1.954,0.97
1.956,0.975
1.958,0.94
1.96,0.86
1.962,0.75
1.964,0.625
1.966,0.49
1.968,0.36
1.97,0.245
1.972,0.155
1.974,0.09
1.976,0.05
1.978,0.03
1.98,0.03
1.982,0.035
1.984,0.05
1.986,0.06
1.988,0.065
1.99,0.07
1.992,0.065
1.994,0.06
1.996,0.05
1.998,0.04
2,0.03
2.002,0.02
2.004,0.015
2.006,0.015
2.008,0.02
2.01,0.02
2.012,0.025
2.014,0.03
2.016,0.035
2.018,0.035
2.02,0.03
2.022,0.025
2.024,0.02
2.026,0.015
2.028,0.01
2.03,0.005
2.032,0.005
2.034,0.005
2.036,0.005
2.038,0.01
2.04,0.01
2.042,0.015
2.044,0.015
2.046,0.02
2.048,0.025
2.05,0.03
2.052,0.035
2.054,0.04
2.056,0.045
2.058,0.045
2.06,0.045
2.062,0.04
2.064,0.03
2.066,0.02
2.068,0.01
2.07,0.005
2.072,0
2.074,-0.005
2.076,0
2.078,0.005
2.08,0.015
2.082,0.03
2.084,0.04
2.086,0.045
2.088,0.055
2.09,0.055
2.092,0.06
2.094,0.055
2.096,0.05
2.098,0.045
2.1,0.04
2.102,0.03
2.104,0.025
2.106,0.015
2.108,0.01
2.11,0.01
2.112,0.01
2.114,0.015
2.116,0.025
2.118,0.04
2.12,0.055
2.122,0.07
2.124,0.08
2.126,0.085
2.128,0.09
2.13,0.09
2.132,0.085
2.134,0.075
2.136,0.07
2.138,0.065
2.14,0.06
2.142,0.06
2.144,0.065
2.146,0.07
2.148,0.075
2.15,0.08
2.152,0.085
2.154,0.085
2.156,0.085
2.158,0.09
2.16,0.09
2.162,0.1
2.164,0.105
2.166,0.115
2.168,0.125
2.17,0.14
2.172,0.15
2.174,0.155
2.176,0.16
2.178,0.16
2.18,0.155
2.182,0.15
2.184,0.14
2.186,0.135
2.188,0.13
2.19,0.125
2.192,0.13
2.194,0.135
2.196,0.15
2.198,0.165
2.2,0.18
2.202,0.2
2.204,0.215
2.206,0.23
2.208,0.24
2.21,0.245
2.212,0.24
2.214,0.235
2.216,0.225
2.218,0.21
2.22,0.2
2.222,0.19
2.224,0.19
2.226,0.19
2.228,0.2
2.23,0.21
2.232,0.22
2.234,0.23
2.236,0.23
2.238,0.23
2.24,0.215
2.242,0.2
2.244,0.18
2.246,0.16
2.248,0.14
2.25,0.125
2.252,0.115
2.254,0.105
2.256,0.095
2.258,0.085
2.26,0.075
2.262,0.065
2.264,0.05
2.266,0.035
2.268,0.02
2.27,0.01
2.272,0.005
2.274,0
2.276,0
2.278,0
2.28,-0.005
2.282,-0.01
2.284,-0.015
2.286,-0.03
2.288,-0.04
2.29,-0.05
2.292,-0.055
2.294,-0.06
2.296,-0.06
2.298,-0.055
2.3,-0.045
2.302,-0.04
2.304,-0.035
2.306,-0.04
2.308,-0.045
2.31,-0.055
2.312,-0.065
2.314,-0.075
2.316,-0.08
2.318,-0.08
2.32,-0.075
2.322,-0.07
2.324,-0.06
2.326,-0.05
2.328,-0.045
2.33,-0.04
2.332,-0.045
2.334,-0.05
2.336,-0.06
2.338,-0.065
2.34,-0.075
2.342,-0.08
2.344,-0.08
2.346,-0.08
2.348,-0.075
2.35,-0.075
2.352,-0.07
2.354,-0.07
2.356,-0.07
2.358,-0.075
2.36,-0.075
2.362,-0.08
2.364,-0.08
2.366,-0.08
2.368,-0.08
2.37,-0.08
2.372,-0.075
2.374,-0.075
2.376,-0.075
2.378,-0.075
2.38,-0.08
2.382,-0.08
2.384,-0.085
2.386,-0.085
2.388,-0.085
2.39,-0.08
2.392,-0.08
2.394,-0.075
2.396,-0.07
2.398,-0.065
2.4,-0.065
2.402,-0.065
2.404,-0.065
2.406,-0.07
2.408,-0.075
2.41,-0.08
2.412,-0.09
2.414,-0.095
2.416,-0.1
2.418,-0.105
2.42,-0.11
2.422,-0.11
2.424,-0.11
2.426,-0.105
2.428,-0.105
2.43,-0.1
2.432,-0.095
2.434,-0.09
2.436,-0.09
2.438,-0.09
2.44,-0.09
2.442,-0.09
2.444,-0.09
2.446,-0.095
2.448,-0.095
2.45,-0.1
2.452,-0.105
2.454,-0.115
2.456,-0.12
2.458,-0.125
2.46,-0.125
2.462,-0.13
2.464,-0.13
2.466,-0.13
2.468,-0.125
2.47,-0.125
2.472,-0.12
2.474,-0.12
2.476,-0.115
2.478,-0.115
2.48,-0.12
2.482,-0.12
2.484,-0.125
2.486,-0.125
2.488,-0.13
2.49,-0.135
2.492,-0.14
2.494,-0.145
2.496,-0.15
2.498,-0.155
2.5,-0.155
2.502,-0.155
2.504,-0.155
2.506,-0.155
2.508,-0.155
2.51,-0.16
2.512,-0.165
2.514,-0.17
2.516,-0.175
2.518,-0.175
2.52,-0.175
2.522,-0.17
2.524,-0.165
2.526,-0.155
2.528,-0.145
2.53,-0.135
2.532,-0.13
2.534,-0.13
2.536,-0.135
2.538,-0.145
2.54,-0.15
2.542,-0.155
2.544,-0.16
2.546,-0.16
2.548,-0.16
2.55,-0.155
2.552,-0.145
2.554,-0.14
2.556,-0.14
2.558,-0.135
2.56,-0.135
2.562,-0.135
2.564,-0.14
2.566,-0.14
2.568,-0.145
2.57,-0.145
2.572,-0.15
2.574,-0.15
2.576,-0.155
2.578,-0.16
2.58,-0.165
2.582,-0.17
2.584,-0.17
2.586,-0.175
2.588,-0.18
2.59,-0.185
2.592,-0.185
2.594,-0.19
2.596,-0.195
2.598,-0.195
2.6,-0.195
2.602,-0.185
2.604,-0.175
2.606,-0.165
2.608,-0.15
2.61,-0.14
2.612,-0.13
2.614,-0.125
2.616,-0.125
2.618,-0.125
2.62,-0.13
2.622,-0.135
2.624,-0.135
2.626,-0.13
2.628,-0.125
2.63,-0.115
2.632,-0.105
2.634,-0.095
2.636,-0.09
2.638,-0.085
2.64,-0.085
2.642,-0.09
2.644,-0.095
2.646,-0.1
2.648,-0.105
2.65,-0.105
2.652,-0.105
2.654,-0.1
2.656,-0.095
2.658,-0.095
2.66,-0.095
2.662,-0.1
2.664,-0.105
2.666,-0.115
2.668,-0.12
2.67,-0.13
2.672,-0.135
2.674,-0.135
2.676,-0.135
2.678,-0.13
2.68,-0.13
2.682,-0.13
2.684,-0.13
2.686,-0.13
2.688,-0.135
2.69,-0.135
2.692,-0.14
2.694,-0.14
2.696,-0.145
2.698,-0.145
2.7,-0.14
2.702,-0.14
2.704,-0.14
2.706,-0.14
2.708,-0.145
2.71,-0.15
2.712,-0.15
2.714,-0.155
2.716,-0.16
2.718,-0.165
2.72,-0.17
2.722,-0.17
2.724,-0.17
2.726,-0.17
2.728,-0.165
2.73,-0.16
2.732,-0.155
2.734,-0.145
2.736,-0.135
2.738,-0.125
2.74,-0.115
2.742,-0.105
2.744,-0.1
2.746,-0.105
2.748,-0.11
2.75,-0.125
2.752,-0.14
2.754,-0.165
2.756,-0.185
2.758,-0.2
2.76,-0.21
2.762,-0.21
2.764,-0.2
2.766,-0.165
2.768,-0.115
2.77,-0.04
2.772,0.055
2.774,0.17
2.776,0.305
2.778,0.44
2.78,0.58
2.782,0.7
2.784,0.795
2.786,0.855
2.788,0.87
2.79,0.84
2.792,0.765
2.794,0.655
2.796,0.525
2.798,0.385
2.8,0.25
2.802,0.135
2.804,0.04
2.806,-0.025
2.808,-0.065
2.81,-0.085
2.812,-0.09
2.814,-0.09
2.816,-0.085
2.818,-0.085
2.82,-0.09
2.822,-0.09
2.824,-0.095
2.826,-0.095
2.828,-0.095
2.83,-0.095
2.832,-0.095
2.834,-0.095
2.836,-0.1
2.838,-0.105
2.84,-0.115
2.842,-0.12
2.844,-0.125
2.846,-0.13
2.848,-0.125
2.85,-0.12
2.852,-0.11
2.854,-0.1
2.856,-0.095
2.858,-0.095
2.86,-0.095
2.862,-0.105
2.864,-0.115
2.866,-0.125
2.868,-0.135
2.87,-0.14
2.872,-0.14
2.874,-0.135
2.876,-0.13
2.878,-0.125
2.88,-0.12
2.882,-0.12
2.884,-0.12
2.886,-0.115
2.888,-0.115
2.89,-0.11
2.892,-0.11
2.894,-0.1
2.896,-0.095
2.898,-0.09
2.9,-0.085
2.902,-0.09
2.904,-0.095
2.906,-0.105
2.908,-0.115
2.91,-0.125
2.912,-0.13
2.914,-0.13
2.916,-0.13
2.918,-0.12
2.92,-0.11
2.922,-0.1
2.924,-0.09
2.926,-0.085
2.928,-0.08
2.93,-0.08
2.932,-0.08
2.934,-0.08
2.936,-0.08
2.938,-0.07
2.94,-0.06
2.942,-0.05
2.944,-0.04
2.946,-0.035
2.948,-0.035
2.95,-0.045
2.952,-0.05
2.954,-0.06
2.956,-0.07
2.958,-0.07
2.96,-0.065
2.962,-0.06
2.964,-0.05
2.966,-0.04
2.968,-0.03
2.97,-0.025
2.972,-0.025
2.974,-0.03
2.976,-0.035
2.978,-0.035
2.98,-0.04
2.982,-0.035
2.984,-0.03
2.986,-0.02
2.988,-0.015
2.99,-0.01
2.992,-0.01
2.994,-0.01
2.996,-0.01
2.998,-0.01
3,-0.005
3.002,0.01
3.004,0.025
3.006,0.05
3.008,0.07
3.01,0.085
3.012,0.095
3.014,0.1
3.016,0.095
3.018,0.09
3.02,0.085
3.022,0.08
3.024,0.08
3.026,0.09
3.028,0.105
3.03,0.12
3.032,0.13
3.034,0.14
3.036,0.14
3.038,0.14
3.04,0.13
3.042,0.12
3.044,0.12
3.046,0.12
3.048,0.13
3.05,0.145
3.052,0.16
3.054,0.175
3.056,0.185
3.058,0.19
3.06,0.185
3.062,0.17
3.064,0.155
3.066,0.14
3.068,0.125
3.07,0.115
3.072,0.11
3.074,0.11
3.076,0.11
3.078,0.11
3.08,0.1
3.082,0.085
3.084,0.07
3.086,0.05
3.088,0.03
3.09,0.02
3.092,0.015
3.094,0.015
3.096,0.02
3.098,0.025
3.1,0.03
3.102,0.025
3.104,0.015
3.106,0
3.108,-0.025
3.11,-0.045
3.112,-0.065
3.114,-0.075
3.116,-0.08
3.118,-0.08
3.12,-0.075
3.122,-0.065
3.124,-0.06
3.126,-0.06
3.128,-0.065
3.13,-0.07
3.132,-0.08
3.134,-0.085
3.136,-0.09
3.138,-0.085
3.14,-0.075
3.142,-0.06
3.144,-0.05
3.146,-0.04
3.148,-0.035
3.15,-0.04
3.152,-0.05
3.154,-0.065
3.156,-0.075
3.158,-0.085
3.16,-0.085
3.162,-0.085
3.164,-0.075
3.166,-0.06
3.168,-0.05
3.17,-0.035
3.172,-0.03
3.174,-0.025
3.176,-0.025
3.178,-0.03
3.18,-0.035
3.182,-0.04
3.184,-0.04
3.186,-0.045
3.188,-0.045
3.19,-0.045
3.192,-0.045
3.194,-0.045
3.196,-0.04
3.198,-0.035
3.2,-0.03
3.202,-0.02
3.204,-0.015
3.206,-0.01
3.208,-0.005
3.21,-0.005
3.212,-0.01
3.214,-0.015
3.216,-0.025
3.218,-0.03
3.22,-0.03
3.222,-0.03
3.224,-0.025
3.226,-0.02
3.228,-0.01
3.23,-0.005
3.232,-0.005
3.234,-0.005
3.236,-0.015
3.238,-0.02
3.24,-0.025
3.242,-0.025
3.244,-0.025
3.246,-0.015
3.248,-0.005
3.25,0.005
3.252,0.01
3.254,0.015
3.256,0.01
3.258,0.005
3.26,-0.01
3.262,-0.02
3.264,-0.03
3.266,-0.035
3.268,-0.03
3.27,-0.025
3.272,-0.01
3.274,0.005
3.276,0.02
3.278,0.03
3.28,0.04
3.282,0.035
3.284,0.03
3.286,0.02
3.288,0.005
3.29,-0.005
3.292,-0.015
3.294,-0.02
3.296,-0.025
3.298,-0.02
3.3,-0.02
3.302,-0.015
3.304,-0.01
3.306,-0.005
3.308,0
3.31,0.005
3.312,0.01
3.314,0.01
3.316,0.015
3.318,0.015
3.32,0.02
3.322,0.015
3.324,0.015
3.326,0.01
3.328,0.01
3.33,0.005
3.332,0
3.334,0
3.336,0
3.338,0
3.34,0.005
3.342,0.01
3.344,0.015
3.346,0.015
3.348,0.02
3.35,0.02
3.352,0.02
3.354,0.015
3.356,0.01
3.358,0.01
3.36,0.005
3.362,0
3.364,-0.005
3.366,-0.01
3.368,-0.01
3.37,-0.01
3.372,-0.01
3.374,-0.005
3.376,0
3.378,0.005
3.38,0.005
3.382,0.01
3.384,0.005
3.386,0.005
3.388,0
3.39,-0.01
3.392,-0.015
3.394,-0.02
3.396,-0.025
3.398,-0.025
3.4,-0.025
3.402,-0.025
3.404,-0.02
3.406,-0.015
3.408,-0.015
3.41,-0.015
3.412,-0.01
3.414,-0.015
3.416,-0.015
3.418,-0.015
3.42,-0.02
3.422,-0.02
3.424,-0.02
3.426,-0.02
3.428,-0.015
3.43,-0.01
3.432,-0.005
3.434,0
3.436,0
3.438,0
3.44,-0.005
3.442,-0.015
3.444,-0.03
3.446,-0.04
3.448,-0.045
3.45,-0.045
3.452,-0.04
3.454,-0.03
3.456,-0.02
3.458,-0.005
3.46,0.005
3.462,0.01
3.464,0.015
3.466,0.01
3.468,0.005
3.47,-0.005
3.472,-0.01
3.474,-0.01
3.476,-0.005
3.478,0.005
3.48,0.02
3.482,0.03
3.484,0.04
3.486,0.045
3.488,0.045
3.49,0.045
3.492,0.04
3.494,0.035
3.496,0.03
3.498,0.025
3.5,0.025
3.502,0.025
3.504,0.025
3.506,0.03
3.508,0.035
3.51,0.04
3.512,0.045
3.514,0.045
3.516,0.05
3.518,0.055
3.52,0.05
3.522,0.045
3.524,0.035
3.526,0.025
3.528,0.01
3.53,-0.005
3.532,-0.02
3.534,-0.03
3.536,-0.035
3.538,-0.035
3.54,-0.03
3.542,-0.025
3.544,-0.02
3.546,-0.015
3.548,-0.01
3.55,-0.01
3.552,-0.01
3.554,-0.015
3.556,-0.015
3.558,-0.02
3.56,-0.025
3.562,-0.03
3.564,-0.035
3.566,-0.04
3.568,-0.04
3.57,-0.04
3.572,-0.04
3.574,-0.035
3.576,-0.025
3.578,-0.015
3.58,-0.01
3.582,-0.005
3.584,-0.005
3.586,-0.01
3.588,-0.02
3.59,-0.035
3.592,-0.045
3.594,-0.05
3.596,-0.055
3.598,-0.045
3.6,-0.035
3.602,-0.025
3.604,-0.015
3.606,-0.005
3.608,-0.01
3.61,-0.02
3.612,-0.045
3.614,-0.07
3.616,-0.095
3.618,-0.115
3.62,-0.125
3.622,-0.12
3.624,-0.1
3.626,-0.055
3.628,0.015
3.63,0.105
3.632,0.215
3.634,0.34
3.636,0.475
3.638,0.61
3.64,0.74
3.642,0.855
3.644,0.94
3.646,0.985
3.648,0.99
3.65,0.955
3.652,0.875
3.654,0.765
3.656,0.63
3.658,0.49
3.66,0.355
3.662,0.235
3.664,0.135
3.666,0.07
3.668,0.025
3.67,0.005
3.672,0.005
3.674,0.01
3.676,0.015
3.678,0.02
3.68,0.02
3.682,0.015
3.684,0.005
3.686,-0.01
3.688,-0.025
3.69,-0.035
3.692,-0.04
3.694,-0.04
3.696,-0.035
3.698,-0.025
3.7,-0.015
3.702,0
3.704,0.01
3.706,0.02
3.708,0.025
3.71,0.025
3.712,0.025
3.714,0.02
3.716,0.01
3.718,0.005
3.72,-0.005
3.722,-0.01
3.724,-0.015
3.726,-0.02
3.728,-0.02
3.73,-0.02
3.732,-0.02
3.734,-0.02
3.736,-0.015
3.738,-0.01
3.74,-0.01
3.742,-0.01
3.744,-0.01
3.746,-0.01
3.748,-0.01
3.75,-0.015
3.752,-0.015
3.754,-0.02
3.756,-0.02
3.758,-0.02
3.76,-0.015
3.762,-0.015
3.764,-0.015
3.766,-0.01
3.768,-0.01
3.77,-0.01
3.772,-0.01
3.774,-0.01
3.776,-0.01
3.778,-0.01
3.78,-0.01
3.782,-0.01
3.784,-0.005
3.786,-0.005
3.788,0
3.79,0
3.792,0.005
3.794,0.01
3.796,0.01
3.798,0.01
3.8,0.015
3.802,0.01
3.804,0.01
3.806,0.01
3.808,0.01
3.81,0.01
3.812,0.015
3.814,0.02
3.816,0.025
3.818,0.03
3.82,0.03
3.822,0.03
3.824,0.025
3.826,0.025
3.828,0.02
3.83,0.02
3.832,0.02
3.834,0.03
3.836,0.04
3.838,0.055
3.84,0.07
3.842,0.085
3.844,0.095
3.846,0.1
3.848,0.095
3.85,0.09
3.852,0.08
3.854,0.07
3.856,0.065
3.858,0.065
3.86,0.07
3.862,0.08
3.864,0.09
3.866,0.105
3.868,0.12
3.87,0.13
3.872,0.135
3.874,0.14
3.876,0.14
3.878,0.135
3.88,0.13
3.882,0.13
3.884,0.135
3.886,0.14
3.888,0.15
3.89,0.165
3.892,0.18
3.894,0.195
3.896,0.215
3.898,0.225
3.9,0.235
3.902,0.24
3.904,0.245
3.906,0.24
3.908,0.235
3.91,0.225
3.912,0.22
3.914,0.21
3.916,0.205
3.918,0.2
3.92,0.2
3.922,0.2
3.924,0.2
3.926,0.205
3.928,0.205
3.93,0.205
3.932,0.205
3.934,0.2
3.936,0.19
3.938,0.18
3.94,0.17
3.942,0.16
3.944,0.145
3.946,0.13
3.948,0.115
3.95,0.095
3.952,0.075
3.954,0.055
3.956,0.035
3.958,0.02
3.96,0.01
3.962,0
3.964,0
3.966,-0.005
3.968,-0.005
3.97,-0.005
3.972,-0.01
3.974,-0.02
3.976,-0.03
3.978,-0.04
3.98,-0.05
3.982,-0.055
3.984,-0.055
3.986,-0.05
3.988,-0.04
3.99,-0.03
3.992,-0.02
3.994,-0.015
3.996,-0.015
3.998,-0.02
4,-0.035
4.002,-0.05
4.004,-0.06
4.006,-0.075
4.008,-0.08
4.01,-0.08
4.012,-0.075
4.014,-0.07
4.016,-0.06
4.018,-0.055
4.02,-0.05
4.022,-0.045
4.024,-0.05
4.026,-0.055
4.028,-0.055
4.03,-0.06
4.032,-0.06
4.034,-0.06
4.036,-0.06
4.038,-0.055
4.04,-0.055
4.042,-0.055
4.044,-0.055
4.046,-0.06
4.048,-0.065
4.05,-0.07
4.052,-0.075
4.054,-0.08
4.056,-0.08
4.058,-0.08
4.06,-0.08
4.062,-0.08
4.064,-0.075
4.066,-0.07
4.068,-0.065
4.07,-0.065
4.072,-0.06
4.074,-0.06
4.076,-0.065
4.078,-0.07
4.08,-0.075
4.082,-0.085
4.084,-0.09
4.086,-0.1
4.088,-0.1
4.09,-0.1
4.092,-0.095
4.094,-0.09
4.096,-0.08
4.098,-0.07
4.1,-0.06
4.102,-0.055
4.104,-0.05
4.106,-0.045
4.108,-0.045
4.11,-0.05
4.112,-0.055
4.114,-0.06
4.116,-0.065
4.118,-0.07
4.12,-0.07
4.122,-0.075
4.124,-0.075
4.126,-0.075
4.128,-0.075
4.13,-0.075
4.132,-0.075
4.134,-0.075
4.136,-0.075
4.138,-0.075
4.14,-0.075
4.142,-0.075
4.144,-0.08
4.146,-0.08
4.148,-0.085
4.15,-0.09
4.152,-0.09
4.154,-0.095
4.156,-0.1
4.158,-0.1
4.16,-0.105
4.162,-0.1
4.164,-0.1
4.166,-0.095
4.168,-0.09
4.17,-0.085
4.172,-0.08
4.174,-0.08
4.176,-0.08
4.178,-0.08
4.18,-0.08
4.182,-0.08
4.184,-0.08
4.186,-0.08
4.188,-0.075
4.19,-0.075
4.192,-0.07
4.194,-0.065
4.196,-0.06
4.198,-0.06
4.2,-0.065
4.202,-0.07
4.204,-0.075
4.206,-0.08
4.208,-0.085
4.21,-0.085
4.212,-0.085
4.214,-0.08
4.216,-0.075
4.218,-0.07
4.22,-0.06
4.222,-0.055
4.224,-0.055
4.226,-0.05
4.228,-0.05
4.23,-0.055
4.232,-0.06
4.234,-0.065
4.236,-0.07
4.238,-0.08
4.24,-0.085
4.242,-0.085
4.244,-0.085
4.246,-0.08
4.248,-0.08
4.25,-0.075
4.252,-0.07
4.254,-0.07
4.256,-0.075
4.258,-0.085
4.26,-0.09
4.262,-0.1
4.264,-0.105
4.266,-0.105
4.268,-0.095
4.27,-0.085
4.272,-0.075
4.274,-0.06
4.276,-0.05
4.278,-0.05
4.28,-0.05
4.282,-0.06
4.284,-0.07
4.286,-0.08
4.288,-0.085
4.29,-0.085
4.292,-0.075
4.294,-0.065
4.296,-0.05
4.298,-0.04
4.3,-0.035
4.302,-0.035
4.304,-0.045
4.306,-0.06
4.308,-0.07
4.31,-0.085
4.312,-0.09
4.314,-0.09
4.316,-0.08
4.318,-0.065
4.32,-0.05
4.322,-0.035
4.324,-0.025
4.326,-0.025
4.328,-0.025
4.33,-0.025
4.332,-0.03
4.334,-0.035
4.336,-0.035
4.338,-0.035
4.34,-0.03
4.342,-0.025
4.344,-0.02
4.346,-0.015
4.348,-0.01
4.35,-0.01
4.352,-0.01
4.354,-0.015
4.356,-0.015
4.358,-0.02
4.36,-0.025
4.362,-0.03
4.364,-0.035
4.366,-0.045
4.368,-0.05
4.37,-0.06
4.372,-0.065
4.374,-0.07
4.376,-0.07
4.378,-0.07
4.38,-0.07
4.382,-0.07
4.384,-0.075
4.386,-0.085
4.388,-0.095
4.39,-0.11
4.392,-0.12
4.394,-0.13
4.396,-0.135
4.398,-0.135
4.4,-0.125
4.402,-0.11
4.404,-0.095
4.406,-0.075
4.408,-0.06
4.41,-0.055
4.412,-0.05
4.414,-0.055
4.416,-0.065
4.418,-0.08
4.42,-0.09
4.422,-0.1
4.424,-0.105
4.426,-0.105
4.428,-0.095
4.43,-0.09
4.432,-0.08
4.434,-0.075
4.436,-0.07
4.438,-0.075
4.44,-0.08
4.442,-0.085
4.444,-0.095
4.446,-0.105
4.448,-0.115
4.45,-0.13
4.452,-0.14
4.454,-0.15
4.456,-0.165
4.458,-0.17
4.46,-0.17
4.462,-0.155
4.464,-0.125
4.466,-0.07
4.468,0.01
4.47,0.12
4.472,0.25
4.474,0.395
4.476,0.545
4.478,0.69
4.48,0.81
4.482,0.9
4.484,0.95
4.486,0.95
4.488,0.91
4.49,0.825
4.492,0.705
4.494,0.57
4.496,0.43
4.498,0.29
4.5,0.17
4.502,0.07
4.504,-0.005
4.506,-0.05
4.508,-0.075
4.51,-0.08
4.512,-0.08
4.514,-0.07
4.516,-0.06
4.518,-0.055
4.52,-0.055
4.522,-0.06
4.524,-0.065
4.526,-0.08
4.528,-0.09
4.53,-0.1
4.532,-0.105
4.534,-0.11
4.536,-0.11
4.538,-0.105
4.54,-0.105
4.542,-0.105
4.544,-0.1
4.546,-0.1
4.548,-0.1
4.55,-0.1
4.552,-0.1
4.554,-0.1
4.556,-0.095
4.558,-0.095
4.56,-0.095
4.562,-0.095
4.564,-0.09
4.566,-0.09
4.568,-0.09
4.57,-0.09
4.572,-0.09
4.574,-0.09
4.576,-0.085
4.578,-0.08
4.58,-0.075
4.582,-0.07
4.584,-0.065
4.586,-0.065
4.588,-0.065
4.59,-0.07
4.592,-0.08
4.594,-0.09
4.596,-0.095
4.598,-0.105
4.6,-0.105
4.602,-0.105
4.604,-0.095
4.606,-0.085
4.608,-0.07
4.61,-0.055
4.612,-0.045
4.614,-0.04
4.616,-0.035
4.618,-0.04
4.62,-0.045
4.622,-0.055
4.624,-0.065
4.626,-0.075
4.628,-0.08
4.63,-0.08
4.632,-0.08
4.634,-0.08
4.636,-0.075
4.638,-0.07
4.64,-0.065
4.642,-0.065
4.644,-0.06
4.646,-0.055
4.648,-0.05
4.65,-0.045
4.652,-0.04
4.654,-0.04
4.656,-0.04
4.658,-0.045
4.66,-0.045
4.662,-0.045
4.664,-0.045
4.666,-0.04
4.668,-0.03
4.67,-0.02
4.672,-0.015
4.674,-0.005
4.676,0
4.678,0
4.68,0
4.682,0
4.684,0
4.686,0
4.688,0.005
4.69,0.015
4.692,0.03
4.694,0.045
4.696,0.055
4.698,0.065
4.7,0.075
4.702,0.075
4.704,0.075
4.706,0.075
4.708,0.08
4.71,0.085
4.712,0.095
4.714,0.11
4.716,0.125
4.718,0.135
4.72,0.15
4.722,0.16
4.724,0.16
4.726,0.165
4.728,0.16
4.73,0.16
4.732,0.155
4.734,0.16
4.736,0.16
4.738,0.17
4.74,0.18
4.742,0.19
4.744,0.195
4.746,0.205
4.748,0.21
4.75,0.215
4.752,0.215
4.754,0.215
4.756,0.21
4.758,0.205
4.76,0.2
4.762,0.19
4.764,0.185
4.766,0.175
4.768,0.17
4.77,0.16
4.772,0.155
4.774,0.15
4.776,0.14
4.778,0.135
4.78,0.125
4.782,0.115
4.784,0.1
4.786,0.08
4.788,0.065
4.79,0.045
4.792,0.03
4.794,0.02
4.796,0.01
4.798,0.005
4.8,0.005
4.802,0.005
4.804,0.005
4.806,0
4.808,-0.005
4.81,-0.015
4.812,-0.025
4.814,-0.04
4.816,-0.05
4.818,-0.065
4.82,-0.07
4.822,-0.07
4.824,-0.065
4.826,-0.06
4.828,-0.05
4.83,-0.045
4.832,-0.04
4.834,-0.035
4.836,-0.04
4.838,-0.045
4.84,-0.055
4.842,-0.065
4.844,-0.075
4.846,-0.08
4.848,-0.085
4.85,-0.08
4.852,-0.075
4.854,-0.07
4.856,-0.065
4.858,-0.055
4.86,-0.05
4.862,-0.05
4.864,-0.05
4.866,-0.05
4.868,-0.055
4.87,-0.055
4.872,-0.06
4.874,-0.06
4.876,-0.065
4.878,-0.065
4.88,-0.065
4.882,-0.07
4.884,-0.07
4.886,-0.075
4.888,-0.08
4.89,-0.08
4.892,-0.085
4.894,-0.085
4.896,-0.085
4.898,-0.08
4.9,-0.075
4.902,-0.07
4.904,-0.06
4.906,-0.055
4.908,-0.05
4.91,-0.045
4.912,-0.045
4.914,-0.045
4.916,-0.045
4.918,-0.045
4.92,-0.05
4.922,-0.05
4.924,-0.05
4.926,-0.05
4.928,-0.05
4.93,-0.05
4.932,-0.055
4.934,-0.055
4.936,-0.055
4.938,-0.055
4.94,-0.06
4.942,-0.06
4.944,-0.06
4.946,-0.06
4.948,-0.055
4.95,-0.055
4.952,-0.05
4.954,-0.05
4.956,-0.05
4.958,-0.05
4.96,-0.055
4.962,-0.055
4.964,-0.055
4.966,-0.06
4.968,-0.06
4.97,-0.055
4.972,-0.055
4.974,-0.05
4.976,-0.045
4.978,-0.04
4.98,-0.035
4.982,-0.035
4.984,-0.035
4.986,-0.035
4.988,-0.04
4.99,-0.05
4.992,-0.055
4.994,-0.065
4.996,-0.075
4.998,-0.08
5,-0.085
5.002,-0.08
5.004,-0.075
5.006,-0.065
5.008,-0.06
5.01,-0.05
5.012,-0.045
5.014,-0.04
5.016,-0.045
5.018,-0.05
5.02,-0.06
5.022,-0.065
5.024,-0.07
5.026,-0.07
5.028,-0.065
5.03,-0.06
5.032,-0.05
5.034,-0.045
5.036,-0.04
5.038,-0.04
5.04,-0.04
5.042,-0.05
5.044,-0.055
5.046,-0.06
5.048,-0.065
5.05,-0.065
5.052,-0.065
5.054,-0.065
5.056,-0.06
5.058,-0.06
5.06,-0.06
5.062,-0.06
5.064,-0.06
5.066,-0.06
5.068,-0.06
5.07,-0.055
5.072,-0.055
5.074,-0.055
5.076,-0.055
5.078,-0.06
5.08,-0.065
5.082,-0.075
5.084,-0.085
5.086,-0.09
5.088,-0.09
5.09,-0.09
5.092,-0.08
5.094,-0.075
5.096,-0.065
5.098,-0.06
5.1,-0.06
5.102,-0.06
5.104,-0.07
5.106,-0.075
5.108,-0.08
5.11,-0.085
5.112,-0.085
5.114,-0.08
5.116,-0.07
5.118,-0.06
5.12,-0.055
5.122,-0.055
5.124,-0.06
5.126,-0.065
5.128,-0.075
5.13,-0.085
5.132,-0.09
5.134,-0.095
5.136,-0.085
5.138,-0.075
5.14,-0.065
5.142,-0.05
5.144,-0.04
5.146,-0.035
5.148,-0.035
5.15,-0.035
5.152,-0.04
5.154,-0.045
5.156,-0.045
5.158,-0.045
5.16,-0.035
5.162,-0.03
5.164,-0.02
5.166,-0.015
5.168,-0.01
5.17,-0.01
5.172,-0.01
5.174,-0.01
5.176,-0.015
5.178,-0.015
5.18,-0.01
5.182,-0.005
5.184,0.005
5.186,0.01
5.188,0.02
5.19,0.02
5.192,0.02
5.194,0.015
5.196,0.01
5.198,0
5.2,-0.01
5.202,-0.015
5.204,-0.02
5.206,-0.025
5.208,-0.03
5.21,-0.035
5.212,-0.045
5.214,-0.055
5.216,-0.065
5.218,-0.075
5.22,-0.085
5.222,-0.09
5.224,-0.09
5.226,-0.085
5.228,-0.08
5.23,-0.075
5.232,-0.07
5.234,-0.065
5.236,-0.06
5.238,-0.055
5.24,-0.055
5.242,-0.055
5.244,-0.05
5.246,-0.05
5.248,-0.05
5.25,-0.05
5.252,-0.05
5.254,-0.055
5.256,-0.06
5.258,-0.065
5.26,-0.07
5.262,-0.075
5.264,-0.075
5.266,-0.07
5.268,-0.065
5.27,-0.055
5.272,-0.045
5.274,-0.04
5.276,-0.04
5.278,-0.04
5.28,-0.04
5.282,-0.045
5.284,-0.05
5.286,-0.06
5.288,-0.07
5.29,-0.08
5.292,-0.09
5.294,-0.105
5.296,-0.11
5.298,-0.11
5.3,-0.1
5.302,-0.065
5.304,-0.01
5.306,0.075
5.308,0.19
5.31,0.325
5.312,0.48
5.314,0.635
5.316,0.775
5.318,0.895
5.32,0.98
5.322,1.015
5.324,1
5.326,0.94
5.328,0.835
5.33,0.7
5.332,0.545
5.334,0.39
5.336,0.245
5.338,0.12
5.34,0.03
5.342,-0.025
5.344,-0.055
5.346,-0.055
5.348,-0.04
5.35,-0.02
5.352,0
5.354,0.01
5.356,0.01
5.358,0
5.36,-0.01
5.362,-0.025
5.364,-0.03
5.366,-0.03
5.368,-0.025
5.37,-0.015
5.372,-0.01
5.374,-0.005
5.376,-0.005
5.378,-0.015
5.38,-0.03
5.382,-0.05
5.384,-0.065
5.386,-0.075
5.388,-0.075
5.39,-0.07
5.392,-0.06
5.394,-0.05
5.396,-0.035
5.398,-0.03
5.4,-0.03
5.402,-0.035
5.404,-0.04
5.406,-0.045
5.408,-0.05
5.41,-0.05
5.412,-0.045
5.414,-0.035
5.416,-0.03
5.418,-0.02
5.42,-0.02
5.422,-0.02
5.424,-0.03
5.426,-0.035
5.428,-0.045
5.43,-0.05
5.432,-0.055
5.434,-0.055
5.436,-0.05
5.438,-0.045
5.44,-0.035
5.442,-0.03
5.444,-0.02
5.446,-0.01
5.448,0
5.45,0.005
5.452,0.01
5.454,0.01
5.456,0.01
5.458,0.01
5.46,0.005
5.462,0
5.464,0
5.466,0
5.468,0
5.47,0.005
5.472,0.01
5.474,0.015
5.476,0.015
5.478,0.02
5.48,0.015
5.482,0.015
5.484,0.01
5.486,0.01
5.488,0.01
5.49,0.01
5.492,0.015
5.494,0.025
5.496,0.04
5.498,0.05
5.5,0.06
5.502,0.075
5.504,0.08
5.506,0.085
5.508,0.085
5.51,0.085
5.512,0.08
5.514,0.075
5.516,0.065
5.518,0.06
5.52,0.05
5.522,0.045
5.524,0.045
5.526,0.045
5.528,0.05
5.53,0.055
5.532,0.06
5.534,0.065
5.536,0.075
5.538,0.085
5.54,0.09
5.542,0.1
5.544,0.105
5.546,0.115
5.548,0.12
5.55,0.125
5.552,0.13
5.554,0.135
5.556,0.14
5.558,0.14
5.56,0.14
5.562,0.145
5.564,0.145
5.566,0.15
5.568,0.155
5.57,0.16
5.572,0.165
5.574,0.17
5.576,0.175
5.578,0.18
5.58,0.185
5.582,0.185
5.584,0.19
5.586,0.19
5.588,0.195
5.59,0.205
5.592,0.21
5.594,0.215
5.596,0.22
5.598,0.225
5.6,0.225
5.602,0.22
5.604,0.21
5.606,0.195
5.608,0.18
5.61,0.165
5.612,0.15
5.614,0.135
5.616,0.125
5.618,0.11
5.62,0.1
5.622,0.09
5.624,0.08
5.626,0.065
5.628,0.055
5.63,0.04
5.632,0.03
5.634,0.02
5.636,0.01
5.638,0
5.64,-0.01
5.642,-0.015
5.644,-0.02
5.646,-0.025
5.648,-0.025
5.65,-0.03
5.652,-0.035
5.654,-0.04
5.656,-0.05
5.658,-0.055
5.66,-0.06
5.662,-0.065
5.664,-0.07
5.666,-0.07
5.668,-0.07
5.67,-0.07
5.672,-0.07
5.674,-0.07
5.676,-0.065
5.678,-0.065
5.68,-0.065
5.682,-0.065
5.684,-0.06
5.686,-0.055
5.688,-0.05
5.69,-0.045
5.692,-0.04
5.694,-0.035
5.696,-0.03
5.698,-0.035
5.7,-0.04
5.702,-0.045
5.704,-0.055
5.706,-0.065
5.708,-0.07
5.71,-0.075
5.712,-0.08
5.714,-0.08
5.716,-0.075
5.718,-0.07
5.72,-0.07
5.722,-0.065
5.724,-0.065
5.726,-0.065
5.728,-0.065
5.73,-0.065
5.732,-0.07
5.734,-0.07
5.736,-0.07
5.738,-0.07
5.74,-0.07
5.742,-0.07
5.744,-0.07
5.746,-0.07
5.748,-0.065
5.75,-0.065
5.752,-0.06
5.754,-0.05
5.756,-0.045
5.758,-0.04
5.76,-0.04
5.762,-0.04
5.764,-0.05
5.766,-0.06
5.768,-0.075
5.77,-0.085
5.772,-0.095
5.774,-0.095
5.776,-0.095
5.778,-0.085
5.78,-0.07
5.782,-0.055
5.784,-0.045
5.786,-0.035
5.788,-0.035
5.79,-0.04
5.792,-0.05
5.794,-0.06
5.796,-0.07
5.798,-0.08
5.8,-0.085
5.802,-0.085
5.804,-0.075
5.806,-0.065
5.808,-0.055
5.81,-0.045
5.812,-0.035
5.814,-0.035
5.816,-0.04
5.818,-0.045
5.82,-0.055
5.822,-0.07
5.824,-0.08
5.826,-0.085
5.828,-0.09
5.83,-0.085
5.832,-0.08
5.834,-0.075
5.836,-0.065
5.838,-0.055
5.84,-0.055
5.842,-0.055
5.844,-0.06
5.846,-0.07
5.848,-0.08
5.85,-0.09
5.852,-0.095
5.854,-0.095
5.856,-0.095
5.858,-0.09
5.86,-0.08
5.862,-0.075
5.864,-0.07
5.866,-0.07
5.868,-0.075
5.87,-0.085
5.872,-0.09
5.874,-0.095
5.876,-0.095
5.878,-0.09
5.88,-0.08
5.882,-0.07
5.884,-0.06
5.886,-0.05
5.888,-0.045
5.89,-0.045
5.892,-0.05
5.894,-0.06
5.896,-0.07
5.898,-0.08
5.9,-0.08
5.902,-0.08
5.904,-0.08
5.906,-0.075
5.908,-0.07
5.91,-0.065
5.912,-0.065
5.914,-0.065
5.916,-0.07
5.918,-0.07
5.92,-0.07
5.922,-0.07
5.924,-0.065
5.926,-0.06
5.928,-0.05
5.93,-0.05
5.932,-0.05
5.934,-0.055
5.936,-0.06
5.938,-0.07
5.94,-0.075
5.942,-0.08
5.944,-0.075
5.946,-0.07
5.948,-0.065
5.95,-0.055
5.952,-0.045
5.954,-0.04
5.956,-0.035
5.958,-0.03
5.96,-0.025
5.962,-0.02
5.964,-0.015
5.966,-0.01
5.968,-0.01
5.97,-0.01
5.972,-0.01
5.974,-0.01
5.976,-0.015
5.978,-0.015
5.98,-0.015
5.982,-0.01
5.984,-0.005
5.986,0.005
5.988,0.02
5.99,0.03
5.992,0.035
5.994,0.035
5.996,0.035
5.998,0.03
6,0.02
6.002,0.01
6.004,0.005
6.006,0
6.008,0
6.01,-0.005
6.012,-0.005
6.014,-0.01
6.016,-0.02
6.018,-0.035
6.02,-0.05
6.022,-0.065
6.024,-0.075
6.026,-0.085
6.028,-0.09
6.03,-0.085
6.032,-0.08
6.034,-0.07
6.036,-0.055
6.038,-0.045
6.04,-0.035
6.042,-0.03
6.044,-0.025
6.046,-0.03
6.048,-0.035
6.05,-0.04
6.052,-0.045
6.054,-0.055
6.056,-0.055
6.058,-0.06
6.06,-0.06
6.062,-0.055
6.064,-0.05
6.066,-0.04
6.068,-0.035
6.07,-0.025
6.072,-0.02
6.074,-0.02
6.076,-0.02
6.078,-0.025
6.08,-0.035
6.082,-0.045
6.084,-0.06
6.086,-0.075
6.088,-0.085
6.09,-0.09
6.092,-0.095
6.094,-0.1
6.096,-0.1
6.098,-0.095
6.1,-0.095
6.102,-0.09
6.104,-0.08
6.106,-0.065
6.108,-0.035
6.11,0.015
6.112,0.08
6.114,0.175
6.116,0.285
6.118,0.41
6.12,0.54
6.122,0.665
6.124,0.77
6.126,0.845
6.128,0.875
6.13,0.86
6.132,0.805
6.134,0.715
6.136,0.595
6.138,0.47
6.14,0.345
6.142,0.23
6.144,0.14
6.146,0.07
6.148,0.025
6.15,0
6.152,-0.015
6.154,-0.015
6.156,-0.015
6.158,-0.015
6.16,-0.015
6.162,-0.015
6.164,-0.015
6.166,-0.02
6.168,-0.025
6.17,-0.03
6.172,-0.04
6.174,-0.045
6.176,-0.05
6.178,-0.055
6.18,-0.055
6.182,-0.055
6.184,-0.05
6.186,-0.045
6.188,-0.045
6.19,-0.04
6.192,-0.04
6.194,-0.045
6.196,-0.05
6.198,-0.055
6.2,-0.06
6.202,-0.065
6.204,-0.065
6.206,-0.06
6.208,-0.055
6.21,-0.045
6.212,-0.04
6.214,-0.035
6.216,-0.035
6.218,-0.035
6.22,-0.04
6.222,-0.04
6.224,-0.045
6.226,-0.045
6.228,-0.04
6.23,-0.035
6.232,-0.03
6.234,-0.025
6.236,-0.015
6.238,-0.015
6.24,-0.015
6.242,-0.015
6.244,-0.02
6.246,-0.03
6.248,-0.035
6.25,-0.045
6.252,-0.05
6.254,-0.05
6.256,-0.045
6.258,-0.04
6.26,-0.03
6.262,-0.025
6.264,-0.015
6.266,-0.015
6.268,-0.015
6.27,-0.015
6.272,-0.02
6.274,-0.025
6.276,-0.025
6.278,-0.025
6.28,-0.02
6.282,-0.015
6.284,-0.01
6.286,-0.005
6.288,-0.005
6.29,-0.005
6.292,-0.005
6.294,0
6.296,0
6.298,0.005
6.3,0.015
6.302,0.025
6.304,0.03
6.306,0.04
6.308,0.04
6.31,0.035
6.312,0.03
6.314,0.02
6.316,0.015
6.318,0.01
6.32,0.01
6.322,0.015
6.324,0.025
6.326,0.035
6.328,0.045
6.33,0.055
6.332,0.06
6.334,0.065
6.336,0.065
6.338,0.065
6.34,0.065
6.342,0.07
6.344,0.075
6.346,0.08
6.348,0.085
6.35,0.095
6.352,0.1
6.354,0.1
6.356,0.105
6.358,0.105
6.36,0.11
6.362,0.115
6.364,0.12
6.366,0.125
6.368,0.135
6.37,0.135
6.372,0.14
6.374,0.145
6.376,0.15
6.378,0.155
6.38,0.16
6.382,0.17
6.384,0.18
6.386,0.195
6.388,0.2
6.39,0.205
6.392,0.205
6.394,0.2
6.396,0.19
6.398,0.185
6.4,0.175
6.402,0.17
6.404,0.17
6.406,0.17
6.408,0.175
6.41,0.175
6.412,0.175
6.414,0.17
6.416,0.155
6.418,0.14
6.42,0.125
6.422,0.11
6.424,0.095
6.426,0.08
6.428,0.07
6.43,0.055
6.432,0.045
6.434,0.035
6.436,0.02
6.438,0.01
6.44,-0.005
6.442,-0.01
6.444,-0.015
6.446,-0.02
6.448,-0.015
6.45,-0.01
6.452,-0.005
6.454,-0.005
6.456,-0.01
6.458,-0.015
6.46,-0.03
6.462,-0.045
6.464,-0.06
6.466,-0.07
6.468,-0.08
6.47,-0.085
6.472,-0.085
6.474,-0.08
6.476,-0.07
6.478,-0.06
6.48,-0.055
6.482,-0.05
6.484,-0.045
6.486,-0.05
6.488,-0.055
6.49,-0.065
6.492,-0.08
6.494,-0.09
6.496,-0.1
6.498,-0.11
6.5,-0.115
6.502,-0.115
6.504,-0.11
6.506,-0.105
6.508,-0.1
6.51,-0.095
6.512,-0.085
6.514,-0.08
6.516,-0.075
6.518,-0.07
6.52,-0.07
6.522,-0.07
6.524,-0.07
6.526,-0.07
6.528,-0.075
6.53,-0.075
6.532,-0.08
6.534,-0.08
6.536,-0.08
6.538,-0.085
6.54,-0.08
6.542,-0.08
6.544,-0.08
6.546,-0.075
6.548,-0.07
6.55,-0.07
6.552,-0.065
6.554,-0.065
6.556,-0.065
6.558,-0.07
6.56,-0.075
6.562,-0.08
6.564,-0.08
6.566,-0.08
6.568,-0.08
6.57,-0.08
6.572,-0.075
6.574,-0.07
6.576,-0.065
6.578,-0.065
6.58,-0.065
6.582,-0.07
6.584,-0.075
6.586,-0.085
6.588,-0.09
6.59,-0.095
6.592,-0.095
6.594,-0.09
6.596,-0.08
6.598,-0.065
6.6,-0.055
6.602,-0.045
6.604,-0.035
6.606,-0.035
6.608,-0.04
6.61,-0.05
6.612,-0.065
6.614,-0.08
6.616,-0.09
6.618,-0.095
6.62,-0.1
6.622,-0.1
6.624,-0.09
6.626,-0.085
6.628,-0.075
6.63,-0.065
6.632,-0.06
6.634,-0.055
6.636,-0.05
6.638,-0.055
6.64,-0.055
6.642,-0.06
6.644,-0.07
6.646,-0.075
6.648,-0.08
6.65,-0.085
6.652,-0.09
6.654,-0.09
6.656,-0.085
6.658,-0.08
6.66,-0.07
6.662,-0.065
6.664,-0.055
6.666,-0.05
6.668,-0.05
6.67,-0.05
6.672,-0.055
6.674,-0.06
6.676,-0.065
6.678,-0.07
6.68,-0.07
6.682,-0.07
6.684,-0.065
6.686,-0.055
6.688,-0.05
6.69,-0.045
6.692,-0.04
6.694,-0.045
6.696,-0.045
6.698,-0.05
6.7,-0.055
6.702,-0.055
6.704,-0.055
6.706,-0.045
6.708,-0.035
6.71,-0.02
6.712,-0.005
6.714,0.01
6.716,0.02
6.718,0.025
6.72,0.025
6.722,0.015
6.724,0
6.726,-0.015
6.728,-0.035
6.73,-0.05
6.732,-0.065
6.734,-0.075
6.736,-0.08
6.738,-0.085
6.74,-0.085
6.742,-0.085
6.744,-0.09
6.746,-0.095
6.748,-0.1
6.75,-0.105
6.752,-0.105
6.754,-0.11
6.756,-0.105
6.758,-0.105
6.76,-0.1
6.762,-0.09
6.764,-0.09
6.766,-0.085
6.768,-0.085
6.77,-0.09
6.772,-0.095
6.774,-0.1
6.776,-0.105
6.778,-0.105
6.78,-0.105
6.782,-0.1
6.784,-0.09
6.786,-0.085
6.788,-0.075
6.79,-0.065
6.792,-0.06
6.794,-0.06
6.796,-0.065
6.798,-0.07
6.8,-0.075
6.802,-0.085
6.804,-0.09
6.806,-0.09
6.808,-0.09
6.81,-0.09
6.812,-0.085
6.814,-0.08
6.816,-0.08
6.818,-0.08
6.82,-0.09
6.822,-0.105
6.824,-0.12
6.826,-0.14
6.828,-0.15
6.83,-0.155
6.832,-0.145
6.834,-0.12
6.836,-0.075
6.838,-0.005
6.84,0.08
6.842,0.185
6.844,0.305
6.846,0.435
6.848,0.565
6.85,0.69
6.852,0.79
6.854,0.86
6.856,0.895
6.858,0.88
6.86,0.825
6.862,0.725
6.864,0.6
6.866,0.45
6.868,0.305
6.87,0.17
6.872,0.055
6.874,-0.025
6.876,-0.07
6.878,-0.09
6.88,-0.085
6.882,-0.075
6.884,-0.055
6.886,-0.045
6.888,-0.04
6.89,-0.045
6.892,-0.055
6.894,-0.07
6.896,-0.08
6.898,-0.09
6.9,-0.095
6.902,-0.095
6.904,-0.09
6.906,-0.085
6.908,-0.075
6.91,-0.07
6.912,-0.07
6.914,-0.065
6.916,-0.065
6.918,-0.06
6.92,-0.06
6.922,-0.06
6.924,-0.065
6.926,-0.07
6.928,-0.075
6.93,-0.085
6.932,-0.095
6.934,-0.105
6.936,-0.11
6.938,-0.11
6.94,-0.105
6.942,-0.1
6.944,-0.09
6.946,-0.08
6.948,-0.075
6.95,-0.07
6.952,-0.07
6.954,-0.075
6.956,-0.075
6.958,-0.075
6.96,-0.07
6.962,-0.065
6.964,-0.055
6.966,-0.045
6.968,-0.04
6.97,-0.04
6.972,-0.05
6.974,-0.065
6.976,-0.08
6.978,-0.095
6.98,-0.11
6.982,-0.115
6.984,-0.11
6.986,-0.1
6.988,-0.08
6.99,-0.065
6.992,-0.05
6.994,-0.04
6.996,-0.04
6.998,-0.05
7,-0.06
7.002,-0.075
7.004,-0.085
7.006,-0.09
7.008,-0.085
7.01,-0.07
7.012,-0.055
7.014,-0.035
7.016,-0.02
7.018,-0.01
7.02,-0.005
7.022,-0.01
7.024,-0.02
7.026,-0.035
7.028,-0.045
7.03,-0.055
7.032,-0.055
7.034,-0.05
7.036,-0.045
7.038,-0.035
7.04,-0.03
7.042,-0.02
7.044,-0.015
7.046,-0.01
7.048,-0.005
7.05,0
7.052,0.005
7.054,0.015
7.056,0.02
7.058,0.025
7.06,0.03
7.062,0.035
7.064,0.035
7.066,0.035
7.068,0.035
7.07,0.04
7.072,0.04
7.074,0.045
7.076,0.055
7.078,0.065
7.08,0.075
7.082,0.085
7.084,0.095
7.086,0.105
7.088,0.11
7.09,0.115
7.092,0.115
7.094,0.115
7.096,0.115
7.098,0.115
7.1,0.115
7.102,0.115
7.104,0.12
7.106,0.125
7.108,0.13
7.11,0.14
7.112,0.15
7.114,0.16
7.116,0.165
7.118,0.17
7.12,0.17
7.122,0.16
7.124,0.15
7.126,0.14
7.128,0.125
7.13,0.115
7.132,0.11
7.134,0.105
7.136,0.105
7.138,0.105
7.14,0.105
7.142,0.105
7.144,0.1
7.146,0.09
7.148,0.075
7.15,0.055
7.152,0.035
7.154,0.02
7.156,0.005
7.158,-0.01
7.16,-0.015
7.162,-0.02
7.164,-0.025
7.166,-0.03
7.168,-0.03
7.17,-0.04
7.172,-0.045
7.174,-0.055
7.176,-0.065
7.178,-0.07
7.18,-0.08
7.182,-0.085
7.184,-0.09
7.186,-0.09
7.188,-0.09
7.19,-0.085
7.192,-0.085
7.194,-0.085
7.196,-0.085
7.198,-0.085
7.2,-0.09
7.202,-0.09
7.204,-0.095
7.206,-0.1
7.208,-0.105
7.21,-0.11
7.212,-0.11
7.214,-0.11
7.216,-0.11
7.218,-0.11
7.22,-0.105
7.222,-0.1
7.224,-0.09
7.226,-0.085
7.228,-0.08
7.23,-0.08
7.232,-0.08
7.234,-0.08
7.236,-0.085
7.238,-0.09
7.24,-0.095
7.242,-0.095
7.244,-0.095
7.246,-0.095
7.248,-0.09
7.25,-0.085
7.252,-0.08
7.254,-0.085
7.256,-0.085
7.258,-0.095
7.26,-0.1
7.262,-0.11
7.264,-0.115
7.266,-0.115
7.268,-0.115
7.27,-0.11
7.272,-0.1
7.274,-0.095
7.276,-0.09
7.278,-0.09
7.28,-0.09
7.282,-0.095
7.284,-0.105
7.286,-0.11
7.288,-0.115
7.29,-0.115
7.292,-0.11
7.294,-0.105
7.296,-0.095
7.298,-0.085
7.3,-0.08
7.302,-0.075
7.304,-0.08
7.306,-0.08
7.308,-0.085
7.31,-0.09
7.312,-0.095
7.314,-0.1
7.316,-0.1
7.318,-0.1
7.32,-0.095
7.322,-0.095
7.324,-0.095
7.326,-0.095
7.328,-0.095
7.33,-0.105
7.332,-0.11
7.334,-0.115
7.336,-0.12
7.338,-0.12
7.34,-0.115
7.342,-0.11
7.344,-0.1
7.346,-0.09
7.348,-0.085
7.35,-0.08
7.352,-0.08
7.354,-0.085
7.356,-0.09
7.358,-0.1
7.36,-0.11
7.362,-0.115
7.364,-0.115
7.366,-0.11
7.368,-0.105
7.37,-0.1
7.372,-0.09
7.374,-0.09
7.376,-0.09
7.378,-0.1
7.38,-0.11
7.382,-0.125
7.384,-0.135
7.386,-0.145
7.388,-0.15
7.39,-0.15
7.392,-0.14
7.394,-0.13
7.396,-0.115
7.398,-0.1
7.4,-0.09
7.402,-0.085
7.404,-0.085
7.406,-0.09
7.408,-0.095
7.41,-0.105
7.412,-0.11
7.414,-0.115
7.416,-0.11
7.418,-0.11
7.42,-0.1
7.422,-0.09
7.424,-0.08
7.426,-0.075
7.428,-0.065
7.43,-0.065
7.432,-0.065
7.434,-0.065
7.436,-0.07
7.438,-0.07
7.44,-0.075
7.442,-0.075
7.444,-0.075
7.446,-0.07
7.448,-0.065
7.45,-0.055
7.452,-0.05
7.454,-0.04
7.456,-0.035
7.458,-0.03
7.46,-0.03
7.462,-0.03
7.464,-0.035
7.466,-0.04
7.468,-0.05
7.47,-0.055
7.472,-0.06
7.474,-0.065
7.476,-0.065
7.478,-0.06
7.48,-0.055
7.482,-0.05
7.484,-0.045
7.486,-0.04
7.488,-0.045
7.49,-0.045
7.492,-0.055
7.494,-0.065
7.496,-0.075
7.498,-0.085
7.5,-0.09
7.502,-0.095
7.504,-0.09
7.506,-0.09
7.508,-0.08
7.51,-0.075
7.512,-0.07
7.514,-0.07
7.516,-0.07
7.518,-0.07
7.52,-0.075
7.522,-0.075
7.524,-0.075
7.526,-0.075
7.528,-0.07
7.53,-0.065
7.532,-0.055
7.534,-0.05
7.536,-0.05
7.538,-0.05
7.54,-0.055
7.542,-0.065
7.544,-0.07
7.546,-0.08
7.548,-0.08
7.55,-0.08
7.552,-0.075
7.554,-0.07
7.556,-0.065
7.558,-0.06
7.56,-0.055
7.562,-0.055
7.564,-0.06
7.566,-0.065
7.568,-0.07
7.57,-0.075
7.572,-0.075
7.574,-0.08
7.576,-0.085
7.578,-0.085
7.58,-0.095
7.582,-0.1
7.584,-0.1
7.586,-0.095
7.588,-0.075
7.59,-0.04
7.592,0.02
7.594,0.11
7.596,0.22
7.598,0.35
7.6,0.49
7.602,0.63
7.604,0.755
7.606,0.85
7.608,0.91
7.61,0.92
7.612,0.89
7.614,0.815
7.616,0.705
7.618,0.58
7.62,0.445
7.622,0.315
7.624,0.2
7.626,0.105
7.628,0.04
7.63,0
7.632,-0.025
7.634,-0.03
7.636,-0.03
7.638,-0.025
7.64,-0.025
7.642,-0.03
7.644,-0.035
7.646,-0.045
7.648,-0.06
7.65,-0.07
7.652,-0.08
7.654,-0.08
7.656,-0.08
7.658,-0.075
7.66,-0.065
7.662,-0.055
7.664,-0.045
7.666,-0.035
7.668,-0.025
7.67,-0.02
7.672,-0.02
7.674,-0.025
7.676,-0.03
7.678,-0.04
7.68,-0.05
7.682,-0.055
7.684,-0.06
7.686,-0.065
7.688,-0.065
7.69,-0.06
7.692,-0.05
7.694,-0.04
7.696,-0.03
7.698,-0.02
7.7,-0.015
7.702,-0.01
7.704,-0.01
7.706,-0.01
7.708,-0.015
7.71,-0.02
7.712,-0.025
7.714,-0.025
7.716,-0.025
7.718,-0.025
7.72,-0.025
7.722,-0.025
7.724,-0.025
7.726,-0.025
7.728,-0.025
7.73,-0.025
7.732,-0.03
7.734,-0.03
7.736,-0.03
7.738,-0.025
7.74,-0.02
7.742,-0.015
7.744,-0.005
7.746,0
7.748,0.005
7.75,0.005
7.752,0.005
7.754,0.005
7.756,0
7.758,0
7.76,0
7.762,0.01
7.764,0.02
7.766,0.03
7.768,0.045
7.77,0.06
7.772,0.07
7.774,0.075
7.776,0.07
7.778,0.065
7.78,0.06
7.782,0.05
7.784,0.04
7.786,0.04
7.788,0.04
7.79,0.05
7.792,0.06
7.794,0.07
7.796,0.085
7.798,0.09
7.8,0.095
7.802,0.1
7.804,0.095
7.806,0.095
7.808,0.095
7.81,0.095
7.812,0.1
7.814,0.105
7.816,0.11
7.818,0.12
7.82,0.125
7.822,0.13
7.824,0.13
7.826,0.135
7.828,0.135
7.83,0.135
7.832,0.14
7.834,0.145
7.836,0.155
7.838,0.165
7.84,0.175
7.842,0.18
7.844,0.19
7.846,0.195
7.848,0.2
7.85,0.205
7.852,0.205
7.854,0.21
7.856,0.21
7.858,0.215
7.86,0.225
7.862,0.23
7.864,0.24
7.866,0.25
7.868,0.26
7.87,0.265
7.872,0.27
7.874,0.27
7.876,0.27
7.878,0.26
7.88,0.255
7.882,0.245
7.884,0.235
7.886,0.23
7.888,0.225
7.89,0.22
7.892,0.215
7.894,0.21
7.896,0.205
7.898,0.195
7.9,0.18
7.902,0.17
7.904,0.15
7.906,0.14
7.908,0.125
7.91,0.115
7.912,0.11
7.914,0.105
7.916,0.1
7.918,0.09
7.92,0.08
7.922,0.07
7.924,0.06
7.926,0.045
7.928,0.035
7.93,0.025
7.932,0.02
7.934,0.02
7.936,0.02
7.938,0.02
7.94,0.02
7.942,0.015
7.944,0.01
7.946,0
7.948,-0.005
7.95,-0.01
7.952,-0.015
7.954,-0.01
7.956,-0.005
7.958,0.005
7.96,0.015
7.962,0.025
7.964,0.03
7.966,0.03
7.968,0.03
7.97,0.025
7.972,0.02
7.974,0.02
7.976,0.02
7.978,0.02
7.98,0.02
7.982,0.025
7.984,0.025
7.986,0.02
7.988,0.015
7.99,0.005
7.992,-0.01
7.994,-0.02
7.996,-0.03
7.998,-0.035
8,-0.035
8.002,-0.03
8.004,-0.02
8.006,-0.01
8.008,0.005
8.01,0.02
8.012,0.03
8.014,0.035
8.016,0.035
8.018,0.03
8.02,0.02
8.022,0.01
8.024,0
8.026,-0.01
8.028,-0.015
8.03,-0.015
8.032,-0.01
8.034,-0.005
8.036,0.005
8.038,0.01
8.04,0.015
8.042,0.015
8.044,0.01
8.046,0.01
8.048,0.005
8.05,0.005
8.052,0.01
8.054,0.015
8.056,0.02
8.058,0.025
8.06,0.03
8.062,0.035
8.064,0.035
8.066,0.03
8.068,0.025
8.07,0.02
8.072,0.015
8.074,0.01
8.076,0.01
8.078,0.01
8.08,0.01
8.082,0.01
8.084,0.005
8.086,0.005
8.088,0
8.09,0
8.092,-0.005
8.094,0
8.096,0.005
8.098,0.01
8.1,0.02
8.102,0.025
8.104,0.03
8.106,0.025
8.108,0.015
8.11,0.005
8.112,-0.01
8.114,-0.02
8.116,-0.03
8.118,-0.03
8.12,-0.025
8.122,-0.015
8.124,-0.005
8.126,0.01
8.128,0.015
8.13,0.02
8.132,0.02
8.134,0.015
8.136,0.01
8.138,0.005
8.14,0
8.142,0
8.144,0.005
8.146,0.015
8.148,0.02
8.15,0.025
8.152,0.03
8.154,0.03
8.156,0.025
8.158,0.02
8.16,0.02
8.162,0.02
8.164,0.02
8.166,0.02
8.168,0.02
8.17,0.02
8.172,0.02
8.174,0.02
8.176,0.02
8.178,0.02
8.18,0.025
8.182,0.03
8.184,0.035
8.186,0.045
8.188,0.05
8.19,0.055
8.192,0.055
8.194,0.055
8.196,0.05
8.198,0.05
8.2,0.05
8.202,0.05
8.204,0.06
8.206,0.07
8.208,0.075
8.21,0.085
8.212,0.085
8.214,0.08
8.216,0.07
8.218,0.055
8.22,0.045
8.222,0.03
8.224,0.025
8.226,0.025
8.228,0.03
8.23,0.035
8.232,0.04
8.234,0.045
8.236,0.04
8.238,0.03
8.24,0.015
8.242,0
8.244,-0.015
8.246,-0.02
8.248,-0.025
8.25,-0.025
8.252,-0.02
8.254,-0.01
8.256,-0.005
8.258,-0.005
8.26,-0.005
8.262,-0.005
8.264,-0.005
8.266,-0.01
8.268,-0.01
8.27,-0.01
8.272,-0.005
8.274,-0.005
8.276,-0.01
8.278,-0.015
8.28,-0.02
8.282,-0.03
8.284,-0.035
8.286,-0.04
8.288,-0.04
8.29,-0.04
8.292,-0.03
8.294,-0.025
8.296,-0.02
8.298,-0.015
8.3,-0.015
8.302,-0.02
8.304,-0.03
8.306,-0.035
8.308,-0.045
8.31,-0.055
8.312,-0.07
8.314,-0.085
8.316,-0.095
8.318,-0.11
8.32,-0.12
8.322,-0.115
8.324,-0.1
8.326,-0.065
8.328,0
8.33,0.09
8.332,0.205
8.334,0.34
8.336,0.485
8.338,0.63
8.34,0.76
8.342,0.865
8.344,0.93
8.346,0.95
8.348,0.925
8.35,0.86
8.352,0.755
8.354,0.63
8.356,0.485
8.358,0.35
8.36,0.225
8.362,0.12
8.364,0.045
8.366,-0.005
8.368,-0.025
8.37,-0.025
8.372,-0.015
8.374,0
8.376,0.01
8.378,0.02
8.38,0.02
8.382,0.015
8.384,0
8.386,-0.01
8.388,-0.025
8.39,-0.035
8.392,-0.04
8.394,-0.04
8.396,-0.04
8.398,-0.04
8.4,-0.04
8.402,-0.035
8.404,-0.035
8.406,-0.03
8.408,-0.03
8.41,-0.025
8.412,-0.025
8.414,-0.025
8.416,-0.03
8.418,-0.035
8.42,-0.04
8.422,-0.045
8.424,-0.055
8.426,-0.055
8.428,-0.055
8.43,-0.05
8.432,-0.045
8.434,-0.035
8.436,-0.025
8.438,-0.02
8.44,-0.015
8.442,-0.015
8.444,-0.02
8.446,-0.025
8.448,-0.03
8.45,-0.035
8.452,-0.04
8.454,-0.035
8.456,-0.035
8.458,-0.03
8.46,-0.025
8.462,-0.025
8.464,-0.025
8.466,-0.025
8.468,-0.03
8.47,-0.03
8.472,-0.03
8.474,-0.025
8.476,-0.02
8.478,-0.015
8.48,-0.005
8.482,0
8.484,0.01
8.486,0.015
8.488,0.02
8.49,0.02
8.492,0.025
8.494,0.025
8.496,0.025
8.498,0.025
8.5,0.025
8.502,0.025
8.504,0.02
8.506,0.01
8.508,0.005
8.51,0
8.512,-0.005
8.514,-0.01
8.516,-0.005
8.518,0
8.52,0.01
8.522,0.02
8.524,0.03
8.526,0.035
8.528,0.035
8.53,0.035
8.532,0.03
8.534,0.02
8.536,0.015
8.538,0.01
8.54,0.01
8.542,0.015
8.544,0.025
8.546,0.04
8.548,0.05
8.55,0.06
8.552,0.07
8.554,0.075
8.556,0.08
8.558,0.08
8.56,0.085
8.562,0.09
8.564,0.095
8.566,0.1
8.568,0.11
8.57,0.115
8.572,0.12
8.574,0.125
8.576,0.125
8.578,0.12
8.58,0.12
8.582,0.12
8.584,0.125
8.586,0.13
8.588,0.135
8.59,0.145
8.592,0.155
8.594,0.16
8.596,0.17
8.598,0.17
8.6,0.175
8.602,0.175
8.604,0.17
8.606,0.17
8.608,0.17
8.61,0.17
8.612,0.17
8.614,0.17
8.616,0.17
8.618,0.165
8.62,0.16
8.622,0.155
8.624,0.145
8.626,0.135
8.628,0.125
8.63,0.115
8.632,0.1
8.634,0.085
8.636,0.07
8.638,0.06
8.64,0.045
8.642,0.035
8.644,0.03
8.646,0.025
8.648,0.025
8.65,0.02
8.652,0.015
8.654,0.005
8.656,-0.005
8.658,-0.02
8.66,-0.04
8.662,-0.055
8.664,-0.065
8.666,-0.07
8.668,-0.07
8.67,-0.065
8.672,-0.06
8.674,-0.06
8.676,-0.06
8.678,-0.065
8.68,-0.08
8.682,-0.095
8.684,-0.115
8.686,-0.125
8.688,-0.135
8.69,-0.14
8.692,-0.135
8.694,-0.125
8.696,-0.115
8.698,-0.1
8.7,-0.095
8.702,-0.09
8.704,-0.095
8.706,-0.1
8.708,-0.105
8.71,-0.115
8.712,-0.12
8.714,-0.125
8.716,-0.125
8.718,-0.125
8.72,-0.125
8.722,-0.125
8.724,-0.125
8.726,-0.13
8.728,-0.13
8.73,-0.13
8.732,-0.125
8.734,-0.12
8.736,-0.115
8.738,-0.105
8.74,-0.095
8.742,-0.09
8.744,-0.095
8.746,-0.1
8.748,-0.11
8.75,-0.125
8.752,-0.135
8.754,-0.14
8.756,-0.145
8.758,-0.135
8.76,-0.13
8.762,-0.115
8.764,-0.105
8.766,-0.1
8.768,-0.1
8.77,-0.105
8.772,-0.115
8.774,-0.125
8.776,-0.135
8.778,-0.14
8.78,-0.14
8.782,-0.13
8.784,-0.12
8.786,-0.105
8.788,-0.1
8.79,-0.095
8.792,-0.1
8.794,-0.11
8.796,-0.125
8.798,-0.145
8.8,-0.155
8.802,-0.165
8.804,-0.17
8.806,-0.165
8.808,-0.16
8.81,-0.15
8.812,-0.145
8.814,-0.135
8.816,-0.135
8.818,-0.13
8.82,-0.13
8.822,-0.13
8.824,-0.13
8.826,-0.125
8.828,-0.12
8.83,-0.12
8.832,-0.115
8.834,-0.115
8.836,-0.12
8.838,-0.125
8.84,-0.135
8.842,-0.145
8.844,-0.155
8.846,-0.16
8.848,-0.165
8.85,-0.165
8.852,-0.165
8.854,-0.165
8.856,-0.16
8.858,-0.16
8.86,-0.165
8.862,-0.165
8.864,-0.17
8.866,-0.175
8.868,-0.18
8.87,-0.18
8.872,-0.18
8.874,-0.175
8.876,-0.17
8.878,-0.17
8.88,-0.165
8.882,-0.165
8.884,-0.165
8.886,-0.165
8.888,-0.17
8.89,-0.175
8.892,-0.18
8.894,-0.18
8.896,-0.18
8.898,-0.18
8.9,-0.175
8.902,-0.17
8.904,-0.165
8.906,-0.16
8.908,-0.16
8.91,-0.165
8.912,-0.17
8.914,-0.175
8.916,-0.18
8.918,-0.185
8.92,-0.185
8.922,-0.18
8.924,-0.17
8.926,-0.16
8.928,-0.15
8.93,-0.145
8.932,-0.14
8.934,-0.14
8.936,-0.145
8.938,-0.145
8.94,-0.15
8.942,-0.15
8.944,-0.15
8.946,-0.145
8.948,-0.145
8.95,-0.14
8.952,-0.135
8.954,-0.13
8.956,-0.125
8.958,-0.125
8.96,-0.12
8.962,-0.12
8.964,-0.115
8.966,-0.115
8.968,-0.115
8.97,-0.115
8.972,-0.12
8.974,-0.125
8.976,-0.13
8.978,-0.135
8.98,-0.135
8.982,-0.135
8.984,-0.125
8.986,-0.12
8.988,-0.115
8.99,-0.11
8.992,-0.12
8.994,-0.13
8.996,-0.15
8.998,-0.17
9,-0.19
9.002,-0.205
9.004,-0.215
9.006,-0.21
9.008,-0.2
9.01,-0.18
9.012,-0.165
9.014,-0.15
9.016,-0.14
9.018,-0.145
9.02,-0.155
9.022,-0.17
9.024,-0.185
9.026,-0.195
9.028,-0.205
9.03,-0.2
9.032,-0.19
9.034,-0.175
9.036,-0.16
9.038,-0.15
9.04,-0.145
9.042,-0.15
9.044,-0.16
9.046,-0.175
9.048,-0.19
9.05,-0.2
9.052,-0.21
9.054,-0.205
9.056,-0.2
9.058,-0.19
9.06,-0.18
9.062,-0.17
9.064,-0.165
9.066,-0.165
9.068,-0.17
9.07,-0.175
9.072,-0.175
9.074,-0.18
9.076,-0.185
9.078,-0.185
9.08,-0.19
9.082,-0.2
9.084,-0.21
9.086,-0.225
9.088,-0.24
9.09,-0.245
9.092,-0.235
9.094,-0.205
9.096,-0.145
9.098,-0.06
9.1,0.055
9.102,0.195
9.104,0.345
9.106,0.495
9.108,0.635
9.11,0.75
9.112,0.835
9.114,0.87
9.116,0.865
9.118,0.815
9.12,0.72
9.122,0.6
9.124,0.465
9.126,0.325
9.128,0.195
9.13,0.08
9.132,-0.01
9.134,-0.07
9.136,-0.11
9.138,-0.13
9.14,-0.13
9.142,-0.125
9.144,-0.12
9.146,-0.115
9.148,-0.11
9.15,-0.115
9.152,-0.12
9.154,-0.13
9.156,-0.135
9.158,-0.14
9.16,-0.14
9.162,-0.14
9.164,-0.14
9.166,-0.135
9.168,-0.13
9.17,-0.125
9.172,-0.125
9.174,-0.125
9.176,-0.125
9.178,-0.125
9.18,-0.13
9.182,-0.13
9.184,-0.135
9.186,-0.14
9.188,-0.145
9.19,-0.15
9.192,-0.15
9.194,-0.15
9.196,-0.145
9.198,-0.145
9.2,-0.135
9.202,-0.13
9.204,-0.125
9.206,-0.12
9.208,-0.115
9.21,-0.11
9.212,-0.11
9.214,-0.105
9.216,-0.1
9.218,-0.1
9.22,-0.095
9.222,-0.095
9.224,-0.09
9.226,-0.09
9.228,-0.095
9.23,-0.095
9.232,-0.1
9.234,-0.105
9.236,-0.11
9.238,-0.11
9.24,-0.11
9.242,-0.105
9.244,-0.1
9.246,-0.09
9.248,-0.085
9.25,-0.085
9.252,-0.08
9.254,-0.08
9.256,-0.085
9.258,-0.09
9.26,-0.09
9.262,-0.095
9.264,-0.095
9.266,-0.09
9.268,-0.085
9.27,-0.075
9.272,-0.065
9.274,-0.055
9.276,-0.045
9.278,-0.035
9.28,-0.03
9.282,-0.03
9.284,-0.03
9.286,-0.035
9.288,-0.035
9.29,-0.04
9.292,-0.04
9.294,-0.04
9.296,-0.035
9.298,-0.025
9.3,-0.015
9.302,-0.005
9.304,0
9.306,0.005
9.308,0.005
9.31,0.005
9.312,0
9.314,-0.01
9.316,-0.015
9.318,-0.02
9.32,-0.02
9.322,-0.015
9.324,-0.01
9.326,0
9.328,0.01
9.33,0.025
9.332,0.035
9.334,0.045
9.336,0.06
9.338,0.07
9.34,0.08
9.342,0.09
9.344,0.1
9.346,0.105
9.348,0.105
9.35,0.105
9.352,0.105
9.354,0.1
9.356,0.1
9.358,0.1
9.36,0.1
9.362,0.105
9.364,0.11
9.366,0.12
9.368,0.13
9.37,0.14
9.372,0.15
9.374,0.155
9.376,0.155
9.378,0.155
9.38,0.15
9.382,0.145
9.384,0.14
9.386,0.14
9.388,0.135
9.39,0.135
9.392,0.135
9.394,0.13
9.396,0.13
9.398,0.12
9.4,0.115
9.402,0.1
9.404,0.09
9.406,0.075
9.408,0.065
9.41,0.05
9.412,0.04
9.414,0.035
9.416,0.025
9.418,0.02
9.42,0.01
9.422,0
9.424,-0.005
9.426,-0.015
9.428,-0.025
9.43,-0.035
9.432,-0.04
9.434,-0.045
9.436,-0.05
9.438,-0.05
9.44,-0.05
9.442,-0.055
9.444,-0.055
9.446,-0.06
9.448,-0.065
9.45,-0.07
9.452,-0.075
9.454,-0.075
9.456,-0.075
9.458,-0.075
9.46,-0.075
9.462,-0.075
9.464,-0.075
9.466,-0.075
9.468,-0.075
9.47,-0.08
9.472,-0.08
9.474,-0.08
9.476,-0.08
9.478,-0.075
9.48,-0.07
9.482,-0.065
9.484,-0.065
9.486,-0.065
9.488,-0.07
9.49,-0.075
9.492,-0.08
9.494,-0.09
9.496,-0.095
9.498,-0.1
9.5,-0.1
9.502,-0.1
9.504,-0.09
9.506,-0.085
9.508,-0.075
9.51,-0.07
9.512,-0.06
9.514,-0.055
9.516,-0.055
9.518,-0.055
9.52,-0.06
9.522,-0.065
9.524,-0.075
9.526,-0.085
9.528,-0.1
9.53,-0.11
9.532,-0.12
9.534,-0.12
9.536,-0.12
9.538,-0.115
9.54,-0.1
9.542,-0.085
9.544,-0.075
9.546,-0.06
9.548,-0.05
9.55,-0.045
9.552,-0.05
9.554,-0.05
9.556,-0.06
9.558,-0.065
9.56,-0.07
9.562,-0.075
9.564,-0.075
9.566,-0.075
9.568,-0.075
9.57,-0.07
9.572,-0.065
9.574,-0.06
9.576,-0.055
9.578,-0.05
9.58,-0.05
9.582,-0.045
9.584,-0.045
9.586,-0.045
9.588,-0.05
9.59,-0.055
9.592,-0.065
9.594,-0.07
9.596,-0.075
9.598,-0.075
9.6,-0.075
9.602,-0.07
9.604,-0.06
9.606,-0.05
9.608,-0.04
9.61,-0.03
9.612,-0.025
9.614,-0.02
9.616,-0.02
9.618,-0.015
9.62,-0.015
9.622,-0.015
9.624,-0.02
9.626,-0.02
9.628,-0.02
9.63,-0.025
9.632,-0.03
9.634,-0.035
9.636,-0.035
9.638,-0.04
9.64,-0.04
9.642,-0.04
9.644,-0.04
9.646,-0.035
9.648,-0.035
9.65,-0.03
9.652,-0.03
9.654,-0.03
9.656,-0.035
9.658,-0.035
9.66,-0.035
9.662,-0.035
9.664,-0.03
9.666,-0.025
9.668,-0.02
9.67,-0.01
9.672,-0.005
9.674,-0.005
9.676,-0.01
9.678,-0.01
9.68,-0.02
9.682,-0.025
9.684,-0.03
9.686,-0.03
9.688,-0.03
9.69,-0.025
9.692,-0.015
9.694,-0.005
9.696,0.005
9.698,0.01
9.7,0.02
9.702,0.02
9.704,0.02
9.706,0.02
9.708,0.02
9.71,0.02
9.712,0.025
9.714,0.025
9.716,0.03
9.718,0.035
9.72,0.04
9.722,0.045
9.724,0.05
9.726,0.06
9.728,0.065
9.73,0.075
9.732,0.08
9.734,0.08
9.736,0.075
9.738,0.07
9.74,0.055
9.742,0.04
9.744,0.02
9.746,0.005
9.748,-0.01
9.75,-0.02
9.752,-0.025
9.754,-0.025
9.756,-0.02
9.758,-0.015
9.76,-0.005
9.762,0
9.764,0.005
9.766,0.005
9.768,0.01
9.77,0.01
9.772,0.01
9.774,0.01
9.776,0.01
9.778,0.01
9.78,0.01
9.782,0.01
9.784,0.01
9.786,0.005
9.788,0.005
9.79,0.005
9.792,0.01
9.794,0.01
9.796,0.015
9.798,0.02
9.8,0.02
9.802,0.02
9.804,0.02
9.806,0.015
9.808,0.01
9.81,0.01
9.812,0.01
9.814,0.015
9.816,0.02
9.818,0.025
9.82,0.03
9.822,0.035
9.824,0.03
9.826,0.025
9.828,0.015
9.83,0.005
9.832,-0.005
9.834,-0.02
9.836,-0.025
9.838,-0.03
9.84,-0.03
9.842,-0.015
9.844,0.005
9.846,0.05
9.848,0.11
9.85,0.195
9.852,0.31
9.854,0.44
9.856,0.59
9.858,0.74
9.86,0.885
9.862,1
9.864,1.075
9.866,1.105
9.868,1.08
9.87,1.005
9.872,0.89
9.874,0.75
9.876,0.595
9.878,0.45
9.88,0.315
9.882,0.21
9.884,0.135
9.886,0.09
9.888,0.07
9.89,0.065
9.892,0.075
9.894,0.085
9.896,0.1
9.898,0.11
9.9,0.11
9.902,0.11
9.904,0.105
9.906,0.095
9.908,0.085
9.91,0.075
9.912,0.065
9.914,0.06
9.916,0.06
9.918,0.06
9.92,0.065
9.922,0.07
9.924,0.075
9.926,0.08
9.928,0.08
9.93,0.075
9.932,0.075
9.934,0.07
9.936,0.07
9.938,0.07
9.94,0.07
9.942,0.08
9.944,0.085
9.946,0.095
9.948,0.105
9.95,0.11
9.952,0.115
9.954,0.11
9.956,0.105
9.958,0.1
9.96,0.09
9.962,0.085
9.964,0.08
9.966,0.08
9.968,0.085
9.97,0.085
9.972,0.095
9.974,0.1
9.976,0.105
9.978,0.11
9.98,0.115
9.982,0.12
9.984,0.12
9.986,0.12
9.988,0.12
9.99,0.115
9.992,0.11
9.994,0.105
9.996,0.1
9.998,0.095
