0,0.335
0.002,0.125
0.004,-0.055
0.006,0.06
0.008,0.135
0.01,0.355
0.012,0.535
0.014,0.595
0.016,0.59
0.018,0.56
0.02,0.35
0.022,0.19
0.024,0.04
0.026,0.005
0.028,0.085
0.03,0.29
0.032,0.51
0.034,0.62
0.036,0.65
0.038,0.6
0.04,0.34
0.042,0.145
0.044,0.06
0.046,0.065
0.048,0.1
0.05,0.32
0.052,0.55
0.054,0.68
0.056,0.6
0.058,0.55
0.06,0.255
0.062,0.035
0.064,-0.005
0.066,0.06
0.068,0.145
0.07,0.365
0.072,0.535
0.074,0.595
0.076,0.59
0.078,0.52
0.08,0.295
0.082,0.07
0.084,-0.01
0.086,0.005
0.088,0.11
0.09,0.34
0.092,0.525
0.094,0.585
0.096,0.55
0.098,0.465
0.1,0.26
0.102,0.08
0.104,0.03
0.106,0.05
0.108,0.115
0.11,0.335
0.112,0.515
0.114,0.615
0.116,0.61
0.118,0.5
0.12,0.215
0.122,0.055
0.124,0.055
0.126,0.135
0.128,0.175
0.13,0.39
0.132,0.575
0.134,0.585
0.136,0.595
0.138,0.505
0.14,0.245
0.142,0.11
0.144,0.04
0.146,0.115
0.148,0.245
0.15,0.495
0.152,0.625
0.154,0.635
0.156,0.585
0.158,0.51
0.16,0.29
0.162,0.105
0.164,0.085
0.166,0.125
0.168,0.285
0.17,0.475
0.172,0.61
0.174,0.605
0.176,0.57
0.178,0.45
0.18,0.235
0.182,0.07
0.184,0.03
0.186,0.055
0.188,0.195
0.19,0.455
0.192,0.545
0.194,0.545
0.196,0.505
0.198,0.355
0.2,0.155
0.202,0.025
0.204,-0.005
0.206,0.055
0.208,0.25
0.21,0.41
0.212,0.565
0.214,0.585
0.216,0.55
0.218,0.41
0.22,0.155
0.222,0.065
0.224,-0.005
0.226,0.055
0.228,0.2
0.23,0.4
0.232,0.545
0.234,0.545
0.236,0.555
0.238,0.445
0.24,0.18
0.242,0.025
0.244,-0.02
0.246,0.04
0.248,0.24
0.25,0.495
0.252,0.63
0.254,0.59
0.256,0.55
0.258,0.4
0.26,0.145
0.262,-0.015
0.264,-0.045
0.266,0.01
0.268,0.195
0.27,0.46
0.272,0.56
0.274,0.575
0.276,0.465
0.278,0.31
0.28,0.1
0.282,-0.005
0.284,0.035
0.286,0.145
0.288,0.45
0.29,0.75
0.292,0.985
0.294,1.07
0.296,1.135
0.298,1.04
0.3,0.945
0.302,0.935
0.304,0.935
0.306,1.03
0.308,1.34
0.31,1.455
0.312,1.26
0.314,0.94
0.316,0.745
0.318,0.44
0.32,0.19
0.322,0.09
0.324,0.09
0.326,0.11
0.328,0.28
0.33,0.5
0.332,0.64
0.334,0.605
0.336,0.565
0.338,0.325
0.34,0.12
0.342,0.06
0.344,0.085
0.346,0.15
0.348,0.315
0.35,0.545
0.352,0.625
0.354,0.565
0.356,0.53
0.358,0.285
0.36,0.095
0.362,0.015
0.364,0.105
0.366,0.145
0.368,0.345
0.37,0.6
0.372,0.63
0.374,0.565
0.376,0.505
0.378,0.305
0.38,0.1
0.382,0.05
0.384,0.095
0.386,0.175
0.388,0.355
0.39,0.525
0.392,0.615
0.394,0.54
0.396,0.48
0.398,0.28
0.4,0.095
0.402,0.055
0.404,0.095
0.406,0.14
0.408,0.37
0.41,0.495
0.412,0.525
0.414,0.47
0.416,0.385
0.418,0.285
0.42,0.11
0.422,0.06
0.424,0.195
0.426,0.255
0.428,0.445
0.43,0.575
0.432,0.605
0.434,0.535
0.436,0.46
0.438,0.24
0.44,0.095
0.442,0.095
0.444,0.125
0.446,0.235
0.448,0.455
0.45,0.59
0.452,0.635
0.454,0.55
0.456,0.485
0.458,0.275
0.46,0.14
0.462,0.105
0.464,0.15
0.466,0.225
0.468,0.44
0.47,0.59
0.472,0.655
0.474,0.585
0.476,0.495
0.478,0.29
0.48,0.14
0.482,0.13
0.484,0.195
0.486,0.25
0.488,0.48
0.49,0.635
0.492,0.6
0.494,0.51
0.496,0.435
0.498,0.24
0.5,0.155
0.502,0.21
0.504,0.245
0.506,0.385
0.508,0.565
0.51,0.72
0.512,0.69
0.514,0.635
0.516,0.49
0.518,0.3
0.52,0.185
0.522,0.24
0.524,0.28
0.526,0.45
0.528,0.595
0.53,0.735
0.532,0.745
0.534,0.73
0.536,0.565
0.538,0.375
0.54,0.255
0.542,0.255
0.544,0.3
0.546,0.515
0.548,0.7
0.55,0.8
0.552,0.78
0.554,0.71
0.556,0.59
0.558,0.385
0.56,0.27
0.562,0.315
0.564,0.305
0.566,0.48
0.568,0.68
0.57,0.84
0.572,0.825
0.574,0.81
0.576,0.6
0.578,0.445
0.58,0.32
0.582,0.31
0.584,0.325
0.586,0.49
0.588,0.7
0.59,0.735
0.592,0.79
0.594,0.72
0.596,0.55
0.598,0.34
0.6,0.25
0.602,0.265
0.604,0.285
0.606,0.435
0.608,0.645
0.61,0.695
0.612,0.655
0.614,0.605
0.616,0.35
0.618,0.195
0.62,0.125
0.622,0.13
0.624,0.165
0.626,0.355
0.628,0.47
0.63,0.57
0.632,0.6
0.634,0.51
0.636,0.25
0.638,0.105
0.64,0.05
0.642,0.085
0.644,0.105
0.646,0.37
0.648,0.545
0.65,0.61
0.652,0.495
0.654,0.465
0.656,0.255
0.658,0.055
0.66,0.015
0.662,0.02
0.664,0.14
0.666,0.355
0.668,0.495
0.67,0.53
0.672,0.545
0.674,0.52
0.676,0.27
0.678,0.105
0.68,0.055
0.682,0.1
0.684,0.115
0.686,0.34
0.688,0.53
0.69,0.61
0.692,0.525
0.694,0.48
0.696,0.24
0.698,0.095
0.7,0.055
0.702,0.08
0.704,0.18
0.706,0.375
0.708,0.495
0.71,0.545
0.712,0.49
0.714,0.465
0.716,0.255
0.718,0.115
0.72,0.06
0.722,0.185
0.724,0.28
0.726,0.395
0.728,0.545
0.73,0.535
0.732,0.525
0.734,0.45
0.736,0.2
0.738,0.01
0.74,0
0.742,0.11
0.744,0.215
0.746,0.41
0.748,0.58
0.75,0.585
0.752,0.52
0.754,0.41
0.756,0.185
0.758,0.055
0.76,0.01
0.762,0.07
0.764,0.26
0.766,0.445
0.768,0.565
0.77,0.56
0.772,0.56
0.774,0.43
0.776,0.225
0.778,0.075
0.78,0.035
0.782,0.1
0.784,0.23
0.786,0.465
0.788,0.54
0.79,0.565
0.792,0.525
0.794,0.44
0.796,0.21
0.798,0.01
0.8,-0.02
0.802,0.08
0.804,0.265
0.806,0.445
0.808,0.585
0.81,0.59
0.812,0.545
0.814,0.405
0.816,0.185
0.818,0.06
0.82,0.045
0.822,0.04
0.824,0.2
0.826,0.46
0.828,0.59
0.83,0.585
0.832,0.53
0.834,0.385
0.836,0.2
0.838,0
0.84,0.045
0.842,0.085
0.844,0.23
0.846,0.495
0.848,0.575
0.85,0.565
0.852,0.51
0.854,0.33
0.856,0.135
0.858,0.015
0.86,0.06
0.862,0.105
0.864,0.27
0.866,0.475
0.868,0.565
0.87,0.59
0.872,0.525
0.874,0.36
0.876,0.17
0.878,0.09
0.88,0.07
0.882,0.11
0.884,0.265
0.886,0.455
0.888,0.59
0.89,0.55
0.892,0.52
0.894,0.285
0.896,0.07
0.898,0.02
0.9,0.035
0.902,0.095
0.904,0.31
0.906,0.545
0.908,0.605
0.91,0.58
0.912,0.5
0.914,0.31
0.916,0.12
0.918,0.015
0.92,0.005
0.922,0.105
0.924,0.32
0.926,0.51
0.928,0.595
0.93,0.535
0.932,0.465
0.934,0.29
0.936,0.08
0.938,0.015
0.94,0.03
0.942,0.11
0.944,0.33
0.946,0.52
0.948,0.595
0.95,0.61
0.952,0.565
0.954,0.3
0.956,0.13
0.958,0.05
0.96,0.095
0.962,0.165
0.964,0.345
0.966,0.555
0.968,0.635
0.97,0.6
0.972,0.585
0.974,0.34
0.976,0.155
0.978,0.11
0.98,0.12
0.982,0.195
0.984,0.405
0.986,0.605
0.988,0.64
0.99,0.61
0.992,0.585
0.994,0.27
0.996,0.06
0.998,-0.005
1,0.085
1.002,0.22
1.004,0.45
1.006,0.58
1.008,0.595
1.01,0.56
1.012,0.48
1.014,0.225
1.016,0.045
1.018,-0.005
1.02,0.04
1.022,0.155
1.024,0.43
1.026,0.59
1.028,0.625
1.03,0.51
1.032,0.41
1.034,0.17
1.036,0.035
1.038,0.045
1.04,0.095
1.042,0.22
1.044,0.415
1.046,0.565
1.048,0.58
1.05,0.54
1.052,0.465
1.054,0.22
1.056,0.035
1.058,-0.005
1.06,0.07
1.062,0.18
1.064,0.405
1.066,0.55
1.068,0.56
1.07,0.525
1.072,0.435
1.074,0.205
1.076,0.05
1.078,0.015
1.08,0.085
1.082,0.175
1.084,0.405
1.086,0.6
1.088,0.605
1.09,0.545
1.092,0.42
1.094,0.16
1.096,0.005
1.098,-0.025
1.1,0.025
1.102,0.14
1.104,0.345
1.106,0.545
1.108,0.605
1.11,0.59
1.112,0.545
1.114,0.455
1.116,0.415
1.118,0.57
1.12,0.74
1.122,1.025
1.124,1.315
1.126,1.475
1.128,1.51
1.13,1.52
1.132,1.415
1.134,1.15
1.136,0.775
1.138,0.41
1.14,0.32
1.142,0.43
1.144,0.595
1.146,0.62
1.148,0.595
1.15,0.565
1.152,0.34
1.154,0.22
1.156,0.12
1.158,0.1
1.16,0.16
1.162,0.325
1.164,0.53
1.166,0.62
1.168,0.605
1.17,0.555
1.172,0.395
1.174,0.165
1.176,0.045
1.178,0.055
1.18,0.105
1.182,0.28
1.184,0.495
1.186,0.65
1.188,0.61
1.19,0.56
1.192,0.325
1.194,0.135
1.196,0.05
1.198,0.05
1.2,0.115
1.202,0.315
1.204,0.485
1.206,0.62
1.208,0.585
1.21,0.53
1.212,0.31
1.214,0.13
1.216,0.03
1.218,0.06
1.22,0.105
1.222,0.315
1.224,0.545
1.226,0.61
1.228,0.61
1.23,0.505
1.232,0.33
1.234,0.12
1.236,0.06
1.238,0.065
1.24,0.115
1.242,0.405
1.244,0.59
1.246,0.6
1.248,0.54
1.25,0.59
1.252,0.36
1.254,0.13
1.256,0.095
1.258,0.08
1.26,0.135
1.262,0.36
1.264,0.555
1.266,0.635
1.268,0.62
1.27,0.575
1.272,0.335
1.274,0.165
1.276,0.075
1.278,0.155
1.28,0.2
1.282,0.405
1.284,0.575
1.286,0.625
1.288,0.59
1.29,0.535
1.292,0.315
1.294,0.15
1.296,0.105
1.298,0.155
1.3,0.27
1.302,0.49
1.304,0.6
1.306,0.68
1.308,0.645
1.31,0.55
1.312,0.285
1.314,0.12
1.316,0.135
1.318,0.205
1.32,0.255
1.322,0.47
1.324,0.615
1.326,0.67
1.328,0.66
1.33,0.51
1.332,0.355
1.334,0.235
1.336,0.23
1.338,0.275
1.34,0.335
1.342,0.55
1.344,0.63
1.346,0.68
1.348,0.68
1.35,0.645
1.352,0.435
1.354,0.275
1.356,0.26
1.358,0.275
1.36,0.425
1.362,0.65
1.364,0.765
1.366,0.775
1.368,0.73
1.37,0.635
1.372,0.425
1.374,0.28
1.376,0.255
1.378,0.28
1.38,0.465
1.382,0.665
1.384,0.83
1.386,0.86
1.388,0.815
1.39,0.655
1.392,0.44
1.394,0.34
1.396,0.31
1.398,0.32
1.4,0.51
1.402,0.725
1.404,0.875
1.406,0.885
1.408,0.81
1.41,0.65
1.412,0.39
1.414,0.255
1.416,0.285
1.418,0.315
1.42,0.415
1.422,0.6
1.424,0.76
1.426,0.75
1.428,0.71
1.43,0.52
1.432,0.29
1.434,0.19
1.436,0.17
1.438,0.16
1.44,0.325
1.442,0.55
1.444,0.69
1.446,0.71
1.448,0.635
1.45,0.39
1.452,0.155
1.454,0.115
1.456,0.085
1.458,0.11
1.46,0.31
1.462,0.52
1.464,0.635
1.466,0.64
1.468,0.555
1.47,0.37
1.472,0.145
1.474,0.02
1.476,0.07
1.478,0.125
1.48,0.31
1.482,0.51
1.484,0.61
1.486,0.58
1.488,0.56
1.49,0.33
1.492,0.155
1.494,0.035
1.496,0.07
1.498,0.115
1.5,0.31
1.502,0.51
1.504,0.645
1.506,0.595
1.508,0.55
1.51,0.365
1.512,0.145
1.514,0.065
1.516,0.065
1.518,0.09
1.52,0.325
1.522,0.545
1.524,0.625
1.526,0.56
1.528,0.605
1.53,0.34
1.532,0.1
1.534,-0.025
1.536,0.06
1.538,0.145
1.54,0.385
1.542,0.565
1.544,0.65
1.546,0.6
1.548,0.535
1.55,0.32
1.552,0.15
1.554,0.075
1.556,0.09
1.558,0.145
1.56,0.37
1.562,0.52
1.564,0.625
1.566,0.585
1.568,0.52
1.57,0.335
1.572,0.125
1.574,0.09
1.576,0.125
1.578,0.19
1.58,0.34
1.582,0.54
1.584,0.65
1.586,0.61
1.588,0.445
1.59,0.33
1.592,0.13
1.594,0.075
1.596,0.075
1.598,0.165
1.6,0.36
1.602,0.535
1.604,0.625
1.606,0.6
1.608,0.51
1.61,0.3
1.612,0.115
1.614,-0.005
1.616,0.09
1.618,0.22
1.62,0.45
1.622,0.51
1.624,0.575
1.626,0.57
1.628,0.48
1.63,0.255
1.632,0.105
1.634,0.08
1.636,0.115
1.638,0.18
1.64,0.42
1.642,0.54
1.644,0.57
1.646,0.52
1.648,0.43
1.65,0.245
1.652,0.095
1.654,0.055
1.656,0.11
1.658,0.22
1.66,0.45
1.662,0.565
1.664,0.55
1.666,0.475
1.668,0.43
1.67,0.245
1.672,0.08
1.674,0.06
1.676,0.15
1.678,0.245
1.68,0.445
1.682,0.555
1.684,0.54
1.686,0.545
1.688,0.41
1.69,0.175
1.692,0.015
1.694,0.03
1.696,0.08
1.698,0.235
1.7,0.375
1.702,0.505
1.704,0.55
1.706,0.53
1.708,0.375
1.71,0.2
1.712,0.035
1.714,0.105
1.716,0.105
1.718,0.255
1.72,0.435
1.722,0.58
1.724,0.545
1.726,0.475
1.728,0.355
1.73,0.17
1.732,0.02
1.734,0.01
1.736,0.08
1.738,0.27
1.74,0.445
1.742,0.575
1.744,0.57
1.746,0.545
1.748,0.36
1.75,0.16
1.752,0.06
1.754,0.06
1.756,0.12
1.758,0.29
1.76,0.505
1.762,0.545
1.764,0.5
1.766,0.475
1.768,0.325
1.77,0.11
1.772,-0.025
1.774,0.015
1.776,0.11
1.778,0.32
1.78,0.44
1.782,0.585
1.784,0.54
1.786,0.545
1.788,0.365
1.79,0.15
1.792,0.07
1.794,0.09
1.796,0.155
1.798,0.315
1.8,0.51
1.802,0.64
1.804,0.64
1.806,0.585
1.808,0.37
1.81,0.145
1.812,0.09
1.814,0.12
1.816,0.175
1.818,0.32
1.82,0.535
1.822,0.61
1.824,0.605
1.826,0.515
1.828,0.305
1.83,0.13
1.832,0.07
1.834,0.1
1.836,0.135
1.838,0.33
1.84,0.47
1.842,0.535
1.844,0.485
1.846,0.46
1.848,0.25
1.85,0.065
1.852,0
1.854,0.055
1.856,0.12
1.858,0.295
1.86,0.46
1.862,0.545
1.864,0.5
1.866,0.435
1.868,0.235
1.87,0.055
1.872,-0.03
1.874,0.005
1.876,0.09
1.878,0.295
1.88,0.455
1.882,0.51
1.884,0.465
1.886,0.375
1.888,0.165
1.89,0.035
1.892,-0.02
1.894,0.045
1.896,0.14
1.898,0.315
1.9,0.49
1.902,0.54
1.904,0.465
1.906,0.37
1.908,0.21
1.91,0.055
1.912,-0.02
1.914,0
1.916,0.105
1.918,0.28
1.92,0.435
1.922,0.475
1.924,0.39
1.926,0.315
1.928,0.085
1.93,-0.1
1.932,-0.085
1.934,-0.01
1.936,0.15
1.938,0.435
1.94,0.69
1.942,0.83
1.944,0.895
1.946,0.94
1.948,0.91
1.95,0.85
1.952,0.865
1.954,0.925
1.956,1.065
1.958,1.31
1.96,1.465
1.962,1.42
1.964,1.035
1.966,0.63
1.968,0.325
1.97,0.085
1.972,0.05
1.974,0.12
1.976,0.165
1.978,0.35
1.98,0.495
1.982,0.475
1.984,0.475
1.986,0.355
1.988,0.165
1.99,0.005
1.992,-0.04
1.994,0.01
1.996,0.135
1.998,0.31
2,0.515
2.002,0.465
2.004,0.475
2.006,0.29
2.008,0.11
2.01,-0.055
2.012,-0.045
2.014,-0.045
2.016,0.095
2.018,0.325
2.02,0.475
2.022,0.465
2.024,0.44
2.026,0.3
2.028,0.085
2.03,-0.06
2.032,-0.09
2.034,-0.03
2.036,0.13
2.038,0.275
2.04,0.465
2.042,0.47
2.044,0.395
2.046,0.225
2.048,0.055
2.05,-0.055
2.052,-0.03
2.054,0.03
2.056,0.155
2.058,0.385
2.06,0.455
2.062,0.435
2.064,0.38
2.066,0.215
2.068,0.03
2.07,-0.07
2.072,-0.075
2.074,-0.035
2.076,0.155
2.078,0.335
2.08,0.45
2.082,0.475
2.084,0.42
2.086,0.235
2.088,0.03
2.09,-0.075
2.092,-0.04
2.094,0.045
2.096,0.21
2.098,0.355
2.1,0.435
2.102,0.41
2.104,0.365
2.106,0.16
2.108,-0.01
2.11,-0.07
2.112,-0.065
2.114,-0.05
2.116,0.17
2.118,0.395
2.12,0.47
2.122,0.405
2.124,0.46
2.126,0.245
2.128,-0.01
2.13,-0.035
2.132,0.01
2.134,0.03
2.136,0.24
2.138,0.4
2.14,0.49
2.142,0.44
2.144,0.405
2.146,0.16
2.148,-0.05
2.15,-0.035
2.152,-0.04
2.154,0.015
2.156,0.275
2.158,0.45
2.16,0.515
2.162,0.48
2.164,0.41
2.166,0.235
2.168,0.05
2.17,-0.02
2.172,0.04
2.174,0.09
2.176,0.35
2.178,0.505
2.18,0.56
2.182,0.545
2.184,0.425
2.186,0.275
2.188,0.005
2.19,-0.02
2.192,-0.025
2.194,0.1
2.196,0.33
2.198,0.52
2.2,0.62
2.202,0.58
2.204,0.52
2.206,0.285
2.208,0.12
2.21,0.08
2.212,0.135
2.214,0.235
2.216,0.365
2.218,0.58
2.22,0.58
2.222,0.465
2.224,0.46
2.226,0.305
2.228,0.05
2.23,0.045
2.232,0.15
2.234,0.235
2.236,0.405
2.238,0.545
2.24,0.565
2.242,0.51
2.244,0.435
2.246,0.165
2.248,-0.01
2.25,-0.01
2.252,0.005
2.254,0.11
2.256,0.285
2.258,0.4
2.26,0.385
2.262,0.335
2.264,0.295
2.266,0.05
2.268,-0.11
2.27,-0.14
2.272,-0.085
2.274,0.015
2.276,0.19
2.278,0.35
2.28,0.34
2.282,0.31
2.284,0.17
2.286,-0.055
2.288,-0.195
2.29,-0.24
2.292,-0.195
2.294,-0.04
2.296,0.175
2.298,0.3
2.3,0.31
2.302,0.275
2.304,0.11
2.306,-0.08
2.308,-0.22
2.31,-0.295
2.312,-0.21
2.314,-0.05
2.316,0.16
2.318,0.285
2.32,0.285
2.322,0.215
2.324,0.13
2.326,-0.09
2.328,-0.215
2.33,-0.225
2.332,-0.185
2.334,-0.01
2.336,0.17
2.338,0.275
2.34,0.245
2.342,0.19
2.344,0.06
2.346,-0.17
2.348,-0.21
2.35,-0.165
2.352,-0.19
2.354,-0.045
2.356,0.145
2.358,0.225
2.36,0.245
2.362,0.25
2.364,0.06
2.366,-0.175
2.368,-0.31
2.37,-0.265
2.372,-0.225
2.374,-0.005
2.376,0.165
2.378,0.24
2.38,0.22
2.382,0.195
2.384,0.005
2.386,-0.165
2.388,-0.315
2.39,-0.25
2.392,-0.21
2.394,-0.025
2.396,0.15
2.398,0.295
2.4,0.26
2.402,0.24
2.404,0.005
2.406,-0.195
2.408,-0.28
2.41,-0.255
2.412,-0.2
2.414,-0.02
2.416,0.095
2.418,0.25
2.42,0.235
2.422,0.13
2.424,-0.1
2.426,-0.24
2.428,-0.28
2.43,-0.28
2.432,-0.24
2.434,0.01
2.436,0.175
2.438,0.205
2.44,0.16
2.442,0.16
2.444,-0.035
2.446,-0.21
2.448,-0.31
2.45,-0.315
2.452,-0.265
2.454,-0.035
2.456,0.115
2.458,0.185
2.46,0.155
2.462,0.145
2.464,-0.07
2.466,-0.235
2.468,-0.325
2.47,-0.335
2.472,-0.27
2.474,-0.03
2.476,0.115
2.478,0.19
2.48,0.16
2.482,0.1
2.484,-0.085
2.486,-0.245
2.488,-0.365
2.49,-0.355
2.492,-0.245
2.494,-0.02
2.496,0.155
2.498,0.185
2.5,0.175
2.502,0.07
2.504,-0.18
2.506,-0.355
2.508,-0.405
2.51,-0.37
2.512,-0.245
2.514,-0.035
2.516,0.17
2.518,0.14
2.52,0.135
2.522,0.03
2.524,-0.2
2.526,-0.39
2.528,-0.355
2.53,-0.3
2.532,-0.215
2.534,-0.045
2.536,0.105
2.538,0.205
2.54,0.145
2.542,0.015
2.544,-0.165
2.546,-0.38
2.548,-0.365
2.55,-0.375
2.552,-0.225
2.554,0.025
2.556,0.13
2.558,0.165
2.56,0.12
2.562,0.045
2.564,-0.165
2.566,-0.34
2.568,-0.38
2.57,-0.375
2.572,-0.245
2.574,-0.02
2.576,0.14
2.578,0.16
2.58,0.135
2.582,-0.005
2.584,-0.245
2.586,-0.395
2.588,-0.405
2.59,-0.34
2.592,-0.24
2.594,-0.04
2.596,0.125
2.598,0.115
2.6,0.07
2.602,-0.02
2.604,-0.255
2.606,-0.36
2.608,-0.39
2.61,-0.305
2.612,-0.15
2.614,0.06
2.616,0.18
2.618,0.195
2.62,0.13
2.622,-0.015
2.624,-0.24
2.626,-0.37
2.628,-0.335
2.63,-0.26
2.632,-0.13
2.634,0.095
2.636,0.21
2.638,0.215
2.64,0.135
2.642,0.01
2.644,-0.215
2.646,-0.29
2.648,-0.295
2.65,-0.275
2.652,-0.1
2.654,0.1
2.656,0.22
2.658,0.19
2.66,0.14
2.662,-0.025
2.664,-0.245
2.666,-0.375
2.668,-0.35
2.67,-0.315
2.672,-0.12
2.674,0.075
2.676,0.2
2.678,0.18
2.68,0.11
2.682,-0.08
2.684,-0.29
2.686,-0.4
2.688,-0.38
2.69,-0.275
2.692,-0.1
2.694,0.075
2.696,0.14
2.698,0.135
2.7,0.09
2.702,-0.095
2.704,-0.295
2.706,-0.43
2.708,-0.37
2.71,-0.335
2.712,-0.115
2.714,0.08
2.716,0.18
2.718,0.18
2.72,0.065
2.722,-0.105
2.724,-0.315
2.726,-0.435
2.728,-0.44
2.73,-0.37
2.732,-0.145
2.734,0.14
2.736,0.22
2.738,0.175
2.74,0.14
2.742,-0.09
2.744,-0.31
2.746,-0.385
2.748,-0.39
2.75,-0.295
2.752,-0.075
2.754,0.08
2.756,0.155
2.758,0.085
2.76,0.02
2.762,-0.285
2.764,-0.38
2.766,-0.415
2.768,-0.365
2.77,-0.225
2.772,0.135
2.774,0.45
2.776,0.665
2.778,0.785
2.78,0.795
2.782,0.755
2.784,0.64
2.786,0.56
2.788,0.65
2.79,0.735
2.792,0.965
2.794,1.115
2.796,0.815
2.798,0.49
2.8,0.34
2.802,0.02
2.804,-0.22
2.806,-0.295
2.808,-0.29
2.81,-0.215
2.812,0
2.814,0.175
2.816,0.25
2.818,0.13
2.82,0.075
2.822,-0.14
2.824,-0.29
2.826,-0.35
2.828,-0.32
2.83,-0.205
2.832,0.015
2.834,0.205
2.836,0.205
2.838,0.14
2.84,0.04
2.842,-0.2
2.844,-0.335
2.846,-0.375
2.848,-0.31
2.85,-0.195
2.852,0.005
2.854,0.205
2.856,0.205
2.858,0.14
2.86,0.015
2.862,-0.195
2.864,-0.315
2.866,-0.36
2.868,-0.325
2.87,-0.18
2.872,0.01
2.874,0.12
2.876,0.16
2.878,0.135
2.88,-0.01
2.882,-0.23
2.884,-0.35
2.886,-0.33
2.888,-0.315
2.89,-0.205
2.892,0.025
2.894,0.195
2.896,0.225
2.898,0.155
2.9,0.015
2.902,-0.205
2.904,-0.35
2.906,-0.36
2.908,-0.305
2.91,-0.14
2.912,0
2.914,0.14
2.916,0.17
2.918,0.14
2.92,-0.015
2.922,-0.2
2.924,-0.315
2.926,-0.285
2.928,-0.285
2.93,-0.135
2.932,0.09
2.934,0.18
2.936,0.205
2.938,0.205
2.94,-0.01
2.942,-0.195
2.944,-0.3
2.946,-0.25
2.948,-0.21
2.95,-0.06
2.952,0.14
2.954,0.225
2.956,0.17
2.958,0.14
2.96,-0.025
2.962,-0.21
2.964,-0.26
2.966,-0.28
2.968,-0.21
2.97,-0.06
2.972,0.11
2.974,0.255
2.976,0.255
2.978,0.225
2.98,0.005
2.982,-0.17
2.984,-0.26
2.986,-0.265
2.988,-0.2
2.99,0
2.992,0.195
2.994,0.295
2.996,0.25
2.998,0.195
3,0.06
3.002,-0.16
3.004,-0.18
3.006,-0.155
3.008,-0.115
3.01,0.095
3.012,0.345
3.014,0.36
3.016,0.36
3.018,0.305
3.02,0.125
3.022,-0.115
3.024,-0.155
3.026,-0.13
3.028,-0.065
3.03,0.165
3.032,0.36
3.034,0.46
3.036,0.39
3.038,0.345
3.04,0.115
3.042,-0.035
3.044,-0.1
3.046,-0.075
3.048,-0.035
3.05,0.215
3.052,0.385
3.054,0.465
3.056,0.43
3.058,0.385
3.06,0.165
3.062,-0.01
3.064,-0.09
3.066,-0.05
3.068,-0.005
3.07,0.195
3.072,0.395
3.074,0.385
3.076,0.32
3.078,0.27
3.08,0.075
3.082,-0.09
3.084,-0.215
3.086,-0.145
3.088,-0.1
3.09,0.07
3.092,0.25
3.094,0.3
3.096,0.27
3.098,0.28
3.1,0.05
3.102,-0.22
3.104,-0.225
3.106,-0.27
3.108,-0.17
3.11,0.04
3.112,0.23
3.114,0.235
3.116,0.185
3.118,0.095
3.12,-0.125
3.122,-0.33
3.124,-0.325
3.126,-0.24
3.128,-0.15
3.13,0.08
3.132,0.18
3.134,0.16
3.136,0.145
3.138,0.09
3.14,-0.1
3.142,-0.245
3.144,-0.275
3.146,-0.255
3.148,-0.13
3.15,0.05
3.152,0.19
3.154,0.2
3.156,0.15
3.158,0.095
3.16,-0.14
3.162,-0.275
3.164,-0.315
3.166,-0.24
3.168,-0.11
3.17,0.1
3.172,0.265
3.174,0.275
3.176,0.19
3.178,0.09
3.18,-0.155
3.182,-0.26
3.184,-0.25
3.186,-0.155
3.188,-0.045
3.19,0.055
3.192,0.2
3.194,0.245
3.196,0.17
3.198,0.08
3.2,-0.105
3.202,-0.265
3.204,-0.235
3.206,-0.19
3.208,-0.065
3.21,0.165
3.212,0.28
3.214,0.245
3.216,0.2
3.218,0.03
3.22,-0.14
3.222,-0.22
3.224,-0.22
3.226,-0.17
3.228,-0.07
3.23,0.165
3.232,0.245
3.234,0.26
3.236,0.2
3.238,0.055
3.24,-0.135
3.242,-0.23
3.244,-0.215
3.246,-0.135
3.248,0.05
3.25,0.15
3.252,0.26
3.254,0.265
3.256,0.23
3.258,0.09
3.26,-0.135
3.262,-0.245
3.264,-0.25
3.266,-0.24
3.268,-0.05
3.27,0.23
3.272,0.3
3.274,0.315
3.276,0.285
3.278,0.055
3.28,-0.125
3.282,-0.195
3.284,-0.21
3.286,-0.155
3.288,0.04
3.29,0.185
3.292,0.305
3.294,0.265
3.296,0.195
3.298,0.03
3.3,-0.14
3.302,-0.215
3.304,-0.22
3.306,-0.16
3.308,0.035
3.31,0.195
3.312,0.305
3.314,0.295
3.316,0.25
3.318,0.025
3.32,-0.16
3.322,-0.175
3.324,-0.165
3.326,-0.095
3.328,0.03
3.33,0.21
3.332,0.245
3.334,0.2
3.336,0.235
3.338,0.05
3.34,-0.11
3.342,-0.2
3.344,-0.195
3.346,-0.15
3.348,0.045
3.35,0.25
3.352,0.33
3.354,0.285
3.356,0.22
3.358,0.035
3.36,-0.165
3.362,-0.215
3.364,-0.185
3.366,-0.165
3.368,0.035
3.37,0.26
3.372,0.31
3.374,0.255
3.376,0.2
3.378,-0.02
3.38,-0.195
3.382,-0.2
3.384,-0.15
3.386,-0.135
3.388,0.11
3.39,0.225
3.392,0.28
3.394,0.265
3.396,0.165
3.398,-0.035
3.4,-0.195
3.402,-0.23
3.404,-0.24
3.406,-0.08
3.408,0.105
3.41,0.28
3.412,0.28
3.414,0.21
3.416,0.19
3.418,-0.06
3.42,-0.255
3.422,-0.26
3.424,-0.15
3.426,-0.11
3.428,0.105
3.43,0.315
3.432,0.33
3.434,0.23
3.436,0.15
3.438,-0.07
3.44,-0.225
3.442,-0.27
3.444,-0.19
3.446,-0.08
3.448,0.12
3.45,0.295
3.452,0.25
3.454,0.23
3.456,0.135
3.458,-0.07
3.46,-0.23
3.462,-0.195
3.464,-0.15
3.466,-0.055
3.468,0.12
3.47,0.295
3.472,0.3
3.474,0.235
3.476,0.06
3.478,-0.035
3.48,-0.14
3.482,-0.19
3.484,-0.15
3.486,0
3.488,0.22
3.49,0.355
3.492,0.37
3.494,0.25
3.496,0.125
3.498,-0.085
3.5,-0.22
3.502,-0.17
3.504,-0.1
3.506,0.005
3.508,0.195
3.51,0.31
3.512,0.315
3.514,0.31
3.516,0.19
3.518,-0.005
3.52,-0.145
3.522,-0.225
3.524,-0.145
3.526,0.025
3.528,0.23
3.53,0.335
3.532,0.275
3.534,0.2
3.536,0.065
3.538,-0.085
3.54,-0.235
3.542,-0.225
3.544,-0.2
3.546,-0.045
3.548,0.17
3.55,0.305
3.552,0.31
3.554,0.26
3.556,0.065
3.558,-0.135
3.56,-0.245
3.562,-0.225
3.564,-0.2
3.566,-0.02
3.568,0.18
3.57,0.27
3.572,0.255
3.574,0.23
3.576,0.065
3.578,-0.125
3.58,-0.23
3.582,-0.195
3.584,-0.155
3.586,-0.005
3.588,0.215
3.59,0.25
3.592,0.26
3.594,0.21
3.596,-0.025
3.598,-0.215
3.6,-0.25
3.602,-0.185
3.604,-0.105
3.606,0.07
3.608,0.185
3.61,0.24
3.612,0.22
3.614,0.2
3.616,-0.04
3.618,-0.255
3.62,-0.35
3.622,-0.32
3.624,-0.27
3.626,-0.025
3.628,0.28
3.63,0.47
3.632,0.49
3.634,0.555
3.636,0.54
3.638,0.53
3.64,0.6
3.642,0.725
3.644,0.81
3.646,1.035
3.648,1.2
3.65,1.3
3.652,1.325
3.654,1.215
3.656,0.64
3.658,0.195
3.66,-0.01
3.662,-0.045
3.664,-0.03
3.666,0.145
3.668,0.31
3.67,0.355
3.672,0.32
3.674,0.23
3.676,0.005
3.678,-0.135
3.68,-0.185
3.682,-0.135
3.684,-0.08
3.686,0.1
3.688,0.265
3.69,0.27
3.692,0.26
3.694,0.185
3.696,-0.04
3.698,-0.17
3.7,-0.2
3.702,-0.15
3.704,-0.06
3.706,0.135
3.708,0.26
3.71,0.33
3.712,0.275
3.714,0.21
3.716,0.035
3.718,-0.14
3.72,-0.235
3.722,-0.18
3.724,-0.08
3.726,0.105
3.728,0.275
3.73,0.32
3.732,0.245
3.734,0.185
3.736,-0.06
3.738,-0.235
3.74,-0.175
3.742,-0.155
3.744,-0.085
3.746,0.12
3.748,0.29
3.75,0.33
3.752,0.275
3.754,0.17
3.756,-0.04
3.758,-0.21
3.76,-0.265
3.762,-0.185
3.764,-0.005
3.766,0.205
3.768,0.345
3.77,0.315
3.772,0.24
3.774,0.08
3.776,-0.14
3.778,-0.225
3.78,-0.175
3.782,-0.065
3.784,0.04
3.786,0.16
3.788,0.32
3.79,0.325
3.792,0.24
3.794,0.13
3.796,-0.01
3.798,-0.135
3.8,-0.155
3.802,-0.13
3.804,-0.02
3.806,0.195
3.808,0.31
3.81,0.365
3.812,0.31
3.814,0.14
3.816,-0.035
3.818,-0.185
3.82,-0.145
3.822,-0.1
3.824,0.025
3.826,0.21
3.828,0.305
3.83,0.36
3.832,0.355
3.834,0.185
3.836,-0.02
3.838,-0.145
3.84,-0.095
3.842,-0.02
3.844,0.115
3.846,0.28
3.848,0.385
3.85,0.395
3.852,0.325
3.854,0.185
3.856,-0.02
3.858,-0.115
3.86,-0.08
3.862,-0.01
3.864,0.17
3.866,0.35
3.868,0.435
3.87,0.39
3.872,0.41
3.874,0.26
3.876,0.04
3.878,-0.03
3.88,-0.005
3.882,0.02
3.884,0.21
3.886,0.405
3.888,0.51
3.89,0.485
3.892,0.44
3.894,0.33
3.896,0.115
3.898,0.055
3.9,0.085
3.902,0.13
3.904,0.335
3.906,0.49
3.908,0.57
3.91,0.535
3.912,0.49
3.914,0.285
3.916,0.07
3.918,0.035
3.92,0.065
3.922,0.095
3.924,0.35
3.926,0.475
3.928,0.56
3.93,0.495
3.932,0.48
3.934,0.275
3.936,0.055
3.938,0.005
3.94,0.015
3.942,0.055
3.944,0.285
3.946,0.405
3.948,0.455
3.95,0.4
3.952,0.35
3.954,0.085
3.956,-0.085
3.958,-0.16
3.96,-0.12
3.962,-0.06
3.964,0.155
3.966,0.335
3.968,0.33
3.97,0.28
3.972,0.245
3.974,0.015
3.976,-0.125
3.978,-0.23
3.98,-0.18
3.982,-0.145
3.984,0.115
3.986,0.295
3.988,0.335
3.99,0.32
3.992,0.225
3.994,0.025
3.996,-0.15
3.998,-0.225
4,-0.145
4.002,-0.085
4.004,0.115
4.006,0.295
4.008,0.295
4.01,0.23
4.012,0.15
4.014,-0.09
4.016,-0.245
4.018,-0.215
4.02,-0.14
4.022,-0.045
4.024,0.155
4.026,0.275
4.028,0.32
4.03,0.275
4.032,0.155
4.034,-0.06
4.036,-0.21
4.038,-0.245
4.04,-0.18
4.042,-0.07
4.044,0.13
4.046,0.275
4.048,0.325
4.05,0.25
4.052,0.135
4.054,-0.065
4.056,-0.205
4.058,-0.245
4.06,-0.19
4.062,-0.115
4.064,0.125
4.066,0.335
4.068,0.325
4.07,0.28
4.072,0.135
4.074,-0.08
4.076,-0.215
4.078,-0.27
4.08,-0.175
4.082,-0.06
4.084,0.15
4.086,0.26
4.088,0.31
4.09,0.265
4.092,0.095
4.094,-0.12
4.096,-0.255
4.098,-0.235
4.1,-0.17
4.102,-0.04
4.104,0.21
4.106,0.345
4.108,0.34
4.11,0.275
4.112,0.11
4.114,-0.08
4.116,-0.18
4.118,-0.25
4.12,-0.2
4.122,-0.015
4.124,0.185
4.126,0.3
4.128,0.305
4.13,0.265
4.132,0.14
4.134,-0.085
4.136,-0.255
4.138,-0.22
4.14,-0.2
4.142,-0.015
4.144,0.19
4.146,0.315
4.148,0.315
4.15,0.265
4.152,0.075
4.154,-0.155
4.156,-0.25
4.158,-0.225
4.16,-0.195
4.162,-0.01
4.164,0.2
4.166,0.275
4.168,0.26
4.17,0.28
4.172,0.085
4.174,-0.125
4.176,-0.23
4.178,-0.195
4.18,-0.17
4.182,0.015
4.184,0.22
4.186,0.315
4.188,0.315
4.19,0.27
4.192,0.075
4.194,-0.14
4.196,-0.19
4.198,-0.205
4.2,-0.19
4.202,0
4.204,0.23
4.206,0.32
4.208,0.33
4.21,0.305
4.212,0.07
4.214,-0.165
4.216,-0.235
4.218,-0.23
4.22,-0.145
4.222,0.035
4.224,0.295
4.226,0.405
4.228,0.32
4.23,0.285
4.232,0.085
4.234,-0.15
4.236,-0.235
4.238,-0.21
4.24,-0.165
4.242,0.1
4.244,0.29
4.246,0.335
4.248,0.29
4.25,0.28
4.252,0.04
4.254,-0.2
4.256,-0.225
4.258,-0.23
4.26,-0.16
4.262,0.04
4.264,0.295
4.266,0.415
4.268,0.335
4.27,0.235
4.272,0.035
4.274,-0.185
4.276,-0.235
4.278,-0.17
4.28,-0.065
4.282,0.16
4.284,0.3
4.286,0.32
4.288,0.29
4.29,0.215
4.292,0.01
4.294,-0.15
4.296,-0.155
4.298,-0.165
4.3,-0.06
4.302,0.12
4.304,0.345
4.306,0.37
4.308,0.29
4.31,0.205
4.312,0.01
4.314,-0.15
4.316,-0.2
4.318,-0.15
4.32,-0.02
4.322,0.185
4.324,0.325
4.326,0.435
4.328,0.4
4.33,0.285
4.332,0.015
4.334,-0.11
4.336,-0.175
4.338,-0.115
4.34,0.025
4.342,0.24
4.344,0.395
4.346,0.405
4.348,0.36
4.35,0.27
4.352,0.075
4.354,-0.115
4.356,-0.17
4.358,-0.145
4.36,-0.01
4.362,0.205
4.364,0.35
4.366,0.395
4.368,0.395
4.37,0.205
4.372,-0.025
4.374,-0.175
4.376,-0.255
4.378,-0.15
4.38,0.005
4.382,0.18
4.384,0.33
4.386,0.35
4.388,0.285
4.39,0.11
4.392,-0.125
4.394,-0.265
4.396,-0.28
4.398,-0.14
4.4,0.025
4.402,0.22
4.404,0.35
4.406,0.32
4.408,0.31
4.41,0.19
4.412,-0.035
4.414,-0.215
4.416,-0.185
4.418,-0.155
4.42,-0.01
4.422,0.21
4.424,0.33
4.426,0.32
4.428,0.3
4.43,0.12
4.432,-0.1
4.434,-0.195
4.436,-0.215
4.438,-0.14
4.44,0.02
4.442,0.19
4.444,0.29
4.446,0.37
4.448,0.275
4.45,0.115
4.452,-0.14
4.454,-0.28
4.456,-0.265
4.458,-0.26
4.46,-0.065
4.462,0.15
4.464,0.27
4.466,0.325
4.468,0.45
4.47,0.335
4.472,0.255
4.474,0.335
4.476,0.485
4.478,0.655
4.48,0.97
4.482,1.24
4.484,1.395
4.486,1.43
4.488,1.38
4.49,1.22
4.492,0.865
4.494,0.43
4.496,0.155
4.498,0.03
4.5,0.235
4.502,0.385
4.504,0.455
4.506,0.405
4.508,0.33
4.51,0.135
4.512,-0.105
4.514,-0.23
4.516,-0.185
4.518,-0.105
4.52,0.11
4.522,0.275
4.524,0.38
4.526,0.36
4.528,0.295
4.53,0.08
4.532,-0.115
4.534,-0.22
4.536,-0.17
4.538,-0.145
4.54,0.035
4.542,0.23
4.544,0.355
4.546,0.36
4.548,0.325
4.55,0.04
4.552,-0.15
4.554,-0.22
4.556,-0.185
4.558,-0.11
4.56,0.095
4.562,0.34
4.564,0.365
4.566,0.31
4.568,0.265
4.57,0.06
4.572,-0.11
4.574,-0.2
4.576,-0.155
4.578,-0.07
4.58,0.15
4.582,0.355
4.584,0.375
4.586,0.335
4.588,0.26
4.59,0.065
4.592,-0.13
4.594,-0.185
4.596,-0.175
4.598,-0.11
4.6,0.095
4.602,0.27
4.604,0.395
4.606,0.355
4.608,0.275
4.61,0.075
4.612,-0.125
4.614,-0.13
4.616,-0.085
4.618,-0.04
4.62,0.195
4.622,0.365
4.624,0.405
4.626,0.31
4.628,0.245
4.63,0.025
4.632,-0.125
4.634,-0.17
4.636,-0.11
4.638,-0.01
4.64,0.21
4.642,0.375
4.644,0.395
4.646,0.355
4.648,0.27
4.65,0.07
4.652,-0.085
4.654,-0.17
4.656,-0.11
4.658,0.015
4.66,0.24
4.662,0.445
4.664,0.42
4.666,0.395
4.668,0.23
4.67,0.02
4.672,-0.085
4.674,-0.085
4.676,-0.035
4.678,0.12
4.68,0.32
4.682,0.435
4.684,0.43
4.686,0.41
4.688,0.3
4.69,0.09
4.692,-0.045
4.694,-0.02
4.696,0.035
4.698,0.155
4.7,0.345
4.702,0.5
4.704,0.53
4.706,0.545
4.708,0.37
4.71,0.18
4.712,0.035
4.714,0.01
4.716,0.04
4.718,0.27
4.72,0.5
4.722,0.615
4.724,0.59
4.726,0.58
4.728,0.39
4.73,0.205
4.732,0.11
4.734,0.095
4.736,0.12
4.738,0.3
4.74,0.52
4.742,0.67
4.744,0.66
4.746,0.635
4.748,0.46
4.75,0.235
4.752,0.095
4.754,0.15
4.756,0.19
4.758,0.395
4.76,0.515
4.762,0.635
4.764,0.665
4.766,0.6
4.768,0.41
4.77,0.17
4.772,0.07
4.774,0.09
4.776,0.115
4.778,0.29
4.78,0.47
4.782,0.565
4.784,0.555
4.786,0.47
4.788,0.28
4.79,0.055
4.792,-0.065
4.794,-0.055
4.796,-0.01
4.798,0.175
4.8,0.345
4.802,0.49
4.804,0.5
4.806,0.41
4.808,0.225
4.81,-0.035
4.812,-0.135
4.814,-0.09
4.816,-0.06
4.818,0.125
4.82,0.325
4.822,0.42
4.824,0.365
4.826,0.335
4.828,0.13
4.83,-0.03
4.832,-0.1
4.834,-0.105
4.836,-0.055
4.838,0.155
4.84,0.315
4.842,0.415
4.844,0.36
4.846,0.29
4.848,0.085
4.85,-0.085
4.852,-0.18
4.854,-0.08
4.856,-0.055
4.858,0.18
4.86,0.36
4.862,0.44
4.864,0.36
4.866,0.335
4.868,0.1
4.87,-0.09
4.872,-0.14
4.874,-0.135
4.876,-0.065
4.878,0.17
4.88,0.345
4.882,0.405
4.884,0.365
4.886,0.3
4.888,0.13
4.89,-0.12
4.892,-0.195
4.894,-0.11
4.896,-0.025
4.898,0.14
4.9,0.365
4.902,0.445
4.904,0.435
4.906,0.335
4.908,0.1
4.91,-0.07
4.912,-0.14
4.914,-0.125
4.916,-0.055
4.918,0.22
4.92,0.43
4.922,0.45
4.924,0.375
4.926,0.3
4.928,0.065
4.93,-0.07
4.932,-0.115
4.934,-0.105
4.936,0.015
4.938,0.225
4.94,0.395
4.942,0.425
4.944,0.39
4.946,0.32
4.948,0.03
4.95,-0.09
4.952,-0.11
4.954,-0.04
4.956,0.02
4.958,0.215
4.96,0.375
4.962,0.435
4.964,0.39
4.966,0.23
4.968,0.005
4.97,-0.12
4.972,-0.125
4.974,-0.065
4.976,0.085
4.978,0.305
4.98,0.42
4.982,0.42
4.984,0.395
4.986,0.25
4.988,0.05
4.99,-0.105
4.992,-0.14
4.994,-0.1
4.996,0.03
4.998,0.225
5,0.385
5.002,0.405
5.004,0.34
5.006,0.225
5.008,0.025
5.01,-0.115
5.012,-0.09
5.014,-0.06
5.016,0.035
5.018,0.31
5.02,0.375
5.022,0.365
5.024,0.38
5.026,0.23
5.028,-0.005
5.03,-0.15
5.032,-0.155
5.034,-0.09
5.036,0.1
5.038,0.37
5.04,0.445
5.042,0.43
5.044,0.34
5.046,0.205
5.048,-0.035
5.05,-0.175
5.052,-0.165
5.054,-0.09
5.056,0.075
5.058,0.325
5.06,0.44
5.062,0.41
5.064,0.365
5.066,0.19
5.068,-0.03
5.07,-0.185
5.072,-0.16
5.074,-0.07
5.076,0.105
5.078,0.29
5.08,0.425
5.082,0.365
5.084,0.325
5.086,0.16
5.088,-0.05
5.09,-0.165
5.092,-0.125
5.094,-0.105
5.096,0.115
5.098,0.295
5.1,0.41
5.102,0.39
5.104,0.35
5.106,0.13
5.108,-0.07
5.11,-0.12
5.112,-0.125
5.114,-0.1
5.116,0.11
5.118,0.37
5.12,0.415
5.122,0.395
5.124,0.33
5.126,0.14
5.128,-0.03
5.13,-0.195
5.132,-0.19
5.134,-0.16
5.136,0.13
5.138,0.375
5.14,0.485
5.142,0.435
5.144,0.34
5.146,0.13
5.148,-0.075
5.15,-0.145
5.152,-0.09
5.154,-0.01
5.156,0.195
5.158,0.41
5.16,0.49
5.162,0.41
5.164,0.34
5.166,0.15
5.168,0.01
5.17,-0.045
5.172,-0.065
5.174,-0.025
5.176,0.25
5.178,0.43
5.18,0.46
5.182,0.39
5.184,0.4
5.186,0.2
5.188,0
5.19,-0.13
5.192,-0.045
5.194,0.075
5.196,0.265
5.198,0.445
5.2,0.47
5.202,0.435
5.204,0.33
5.206,0.105
5.208,-0.045
5.21,-0.065
5.212,-0.065
5.214,-0.02
5.216,0.155
5.218,0.345
5.22,0.45
5.222,0.365
5.224,0.33
5.226,0.01
5.228,-0.12
5.23,-0.13
5.232,-0.075
5.234,-0.005
5.236,0.19
5.238,0.375
5.24,0.46
5.242,0.395
5.244,0.295
5.246,0.08
5.248,-0.08
5.25,-0.135
5.252,-0.105
5.254,0.035
5.256,0.265
5.258,0.39
5.26,0.47
5.262,0.355
5.264,0.225
5.266,0
5.268,-0.12
5.27,-0.11
5.272,-0.085
5.274,0.105
5.276,0.27
5.278,0.395
5.28,0.46
5.282,0.42
5.284,0.245
5.286,0.01
5.288,-0.145
5.29,-0.125
5.292,-0.085
5.294,0.03
5.296,0.15
5.298,0.3
5.3,0.39
5.302,0.38
5.304,0.28
5.306,0.16
5.308,0.175
5.31,0.29
5.312,0.46
5.314,0.78
5.316,1.16
5.318,1.4
5.32,1.475
5.322,1.465
5.324,1.305
5.326,1.085
5.328,0.92
5.33,0.74
5.332,0.415
5.334,0.335
5.336,0.465
5.338,0.515
5.34,0.5
5.342,0.45
5.344,0.245
5.346,-0.065
5.348,-0.085
5.35,-0.02
5.352,-0.005
5.354,0.15
5.356,0.33
5.358,0.46
5.36,0.44
5.362,0.4
5.364,0.26
5.366,0.045
5.368,-0.085
5.37,-0.07
5.372,-0.025
5.374,0.165
5.376,0.35
5.378,0.47
5.38,0.435
5.382,0.385
5.384,0.245
5.386,-0.045
5.388,-0.165
5.39,-0.11
5.392,-0.06
5.394,0.145
5.396,0.325
5.398,0.435
5.4,0.475
5.402,0.435
5.404,0.195
5.406,-0.035
5.408,-0.145
5.41,-0.08
5.412,-0.005
5.414,0.195
5.416,0.385
5.418,0.46
5.42,0.41
5.422,0.365
5.424,0.175
5.426,0.045
5.428,-0.065
5.43,-0.05
5.432,-0.1
5.434,0.155
5.436,0.31
5.438,0.405
5.44,0.45
5.442,0.435
5.444,0.155
5.446,0
5.448,-0.005
5.45,-0.02
5.452,0.01
5.454,0.24
5.456,0.385
5.458,0.44
5.46,0.41
5.462,0.405
5.464,0.185
5.466,0.045
5.468,-0.02
5.47,0.005
5.472,0.04
5.474,0.27
5.476,0.42
5.478,0.47
5.48,0.445
5.482,0.385
5.484,0.165
5.486,0.02
5.488,-0.04
5.49,0.015
5.492,0.155
5.494,0.26
5.496,0.465
5.498,0.51
5.5,0.495
5.502,0.415
5.504,0.235
5.506,0.09
5.508,0.075
5.51,0.06
5.512,0.17
5.514,0.355
5.516,0.515
5.518,0.545
5.52,0.49
5.522,0.325
5.524,0.18
5.526,0.06
5.528,0.02
5.53,0.06
5.532,0.15
5.534,0.355
5.536,0.48
5.538,0.57
5.54,0.545
5.542,0.42
5.544,0.245
5.546,0.085
5.548,0.065
5.55,0.11
5.552,0.23
5.554,0.485
5.556,0.58
5.558,0.64
5.56,0.575
5.562,0.465
5.564,0.225
5.566,0.145
5.568,0.125
5.57,0.16
5.572,0.31
5.574,0.51
5.576,0.62
5.578,0.635
5.58,0.62
5.582,0.51
5.584,0.29
5.586,0.165
5.588,0.165
5.59,0.235
5.592,0.435
5.594,0.565
5.596,0.65
5.598,0.63
5.6,0.615
5.602,0.435
5.604,0.285
5.606,0.255
5.608,0.185
5.61,0.195
5.612,0.285
5.614,0.455
5.616,0.57
5.618,0.575
5.62,0.53
5.622,0.365
5.624,0.15
5.626,0.01
5.628,0.045
5.63,0.06
5.632,0.175
5.634,0.37
5.636,0.45
5.638,0.45
5.64,0.42
5.642,0.24
5.644,0.08
5.646,-0.035
5.648,-0.05
5.65,-0.035
5.652,0.175
5.654,0.355
5.656,0.41
5.658,0.385
5.66,0.345
5.662,0.17
5.664,-0.01
5.666,-0.12
5.668,-0.125
5.67,-0.035
5.672,0.145
5.674,0.33
5.676,0.435
5.678,0.38
5.68,0.37
5.682,0.185
5.684,-0.07
5.686,-0.13
5.688,-0.07
5.69,-0.01
5.692,0.245
5.694,0.38
5.696,0.41
5.698,0.395
5.7,0.385
5.702,0.19
5.704,-0.04
5.706,-0.13
5.708,-0.08
5.71,-0.05
5.712,0.22
5.714,0.345
5.716,0.425
5.718,0.365
5.72,0.28
5.722,0.18
5.724,-0.015
5.726,-0.095
5.728,-0.06
5.73,-0.025
5.732,0.195
5.734,0.335
5.736,0.44
5.738,0.39
5.74,0.3
5.742,0.105
5.744,-0.055
5.746,-0.1
5.748,-0.05
5.75,0
5.752,0.22
5.754,0.405
5.756,0.45
5.758,0.395
5.76,0.34
5.762,0.15
5.764,-0.065
5.766,-0.12
5.768,-0.11
5.77,-0.03
5.772,0.22
5.774,0.38
5.776,0.465
5.778,0.355
5.78,0.295
5.782,0.14
5.784,-0.06
5.786,-0.04
5.788,-0.055
5.79,0.005
5.792,0.215
5.794,0.385
5.796,0.44
5.798,0.38
5.8,0.265
5.802,0.08
5.804,-0.06
5.806,-0.07
5.808,-0.07
5.81,0.03
5.812,0.275
5.814,0.39
5.816,0.455
5.818,0.355
5.82,0.325
5.822,0.09
5.824,-0.09
5.826,-0.11
5.828,-0.055
5.83,0.035
5.832,0.225
5.834,0.39
5.836,0.46
5.838,0.415
5.84,0.28
5.842,0.07
5.844,-0.095
5.846,-0.09
5.848,-0.015
5.85,0.04
5.852,0.225
5.854,0.335
5.856,0.385
5.858,0.345
5.86,0.265
5.862,0.09
5.864,-0.04
5.866,-0.085
5.868,-0.03
5.87,0.045
5.872,0.225
5.874,0.38
5.876,0.41
5.878,0.375
5.88,0.24
5.882,0.05
5.884,-0.11
5.886,-0.065
5.888,-0.015
5.89,0.11
5.892,0.285
5.894,0.405
5.896,0.405
5.898,0.355
5.9,0.25
5.902,0.085
5.904,-0.075
5.906,-0.12
5.908,-0.09
5.91,0.08
5.912,0.31
5.914,0.43
5.916,0.435
5.918,0.36
5.92,0.215
5.922,0.015
5.924,-0.07
5.926,-0.045
5.928,-0.015
5.93,0.15
5.932,0.305
5.934,0.46
5.936,0.41
5.938,0.33
5.94,0.205
5.942,0.02
5.944,-0.09
5.946,-0.065
5.948,0
5.95,0.175
5.952,0.325
5.954,0.4
5.956,0.42
5.958,0.375
5.96,0.245
5.962,0.115
5.964,-0.02
5.966,-0.005
5.968,0.06
5.97,0.17
5.972,0.375
5.974,0.51
5.976,0.45
5.978,0.42
5.98,0.24
5.982,0.04
5.984,-0.03
5.986,0.035
5.988,0.11
5.99,0.265
5.992,0.44
5.994,0.525
5.996,0.525
5.998,0.465
6,0.235
6.002,0.03
6.004,-0.01
6.006,0.04
6.008,0.075
6.01,0.305
6.012,0.4
6.014,0.455
6.016,0.395
6.018,0.41
6.02,0.16
6.022,-0.025
6.024,-0.1
6.026,-0.015
6.028,-0.015
6.03,0.2
6.032,0.375
6.034,0.455
6.036,0.45
6.038,0.36
6.04,0.195
6.042,-0.015
6.044,-0.035
6.046,0
6.048,0.055
6.05,0.245
6.052,0.385
6.054,0.46
6.056,0.415
6.058,0.32
6.06,0.13
6.062,-0.035
6.064,-0.07
6.066,0.005
6.068,0.1
6.07,0.255
6.072,0.44
6.074,0.46
6.076,0.48
6.078,0.42
6.08,0.14
6.082,-0.025
6.084,-0.06
6.086,-0.035
6.088,0.025
6.09,0.2
6.092,0.365
6.094,0.46
6.096,0.425
6.098,0.32
6.1,0.085
6.102,-0.12
6.104,-0.145
6.106,-0.06
6.108,0.055
6.11,0.31
6.112,0.62
6.114,0.765
6.116,0.79
6.118,0.79
6.12,0.76
6.122,0.715
6.124,0.815
6.126,0.85
6.128,1.015
6.13,1.215
6.132,1.45
6.134,1.415
6.136,1.175
6.138,0.685
6.14,0.34
6.142,0.14
6.144,0.055
6.146,0.07
6.148,0.19
6.15,0.355
6.152,0.49
6.154,0.535
6.156,0.405
6.158,0.34
6.16,0.15
6.162,-0.025
6.164,-0.02
6.166,0.015
6.168,0.11
6.17,0.285
6.172,0.435
6.174,0.485
6.176,0.45
6.178,0.32
6.18,0.1
6.182,-0.025
6.184,-0.065
6.186,0.025
6.188,0.145
6.19,0.285
6.192,0.465
6.194,0.475
6.196,0.41
6.198,0.28
6.2,0.105
6.202,-0.02
6.204,-0.09
6.206,-0.01
6.208,0.205
6.21,0.315
6.212,0.46
6.214,0.48
6.216,0.445
6.218,0.345
6.22,0.1
6.222,-0.005
6.224,-0.015
6.226,0.02
6.228,0.175
6.23,0.3
6.232,0.47
6.234,0.505
6.236,0.465
6.238,0.38
6.24,0.145
6.242,-0.015
6.244,-0.015
6.246,-0.01
6.248,0.2
6.25,0.365
6.252,0.545
6.254,0.475
6.256,0.385
6.258,0.285
6.26,0.095
6.262,-0.04
6.264,0.015
6.266,0.045
6.268,0.19
6.27,0.4
6.272,0.565
6.274,0.525
6.276,0.47
6.278,0.29
6.28,0.08
6.282,-0.015
6.284,-0.01
6.286,0.055
6.288,0.285
6.29,0.43
6.292,0.515
6.294,0.5
6.296,0.465
6.298,0.3
6.3,0.135
6.302,0.095
6.304,0.11
6.306,0.13
6.308,0.33
6.31,0.495
6.312,0.52
6.314,0.52
6.316,0.47
6.318,0.285
6.32,0.1
6.322,0.075
6.324,0.075
6.326,0.135
6.328,0.35
6.33,0.53
6.332,0.61
6.334,0.55
6.336,0.545
6.338,0.325
6.34,0.17
6.342,0.1
6.344,0.15
6.346,0.215
6.348,0.405
6.35,0.605
6.352,0.65
6.354,0.595
6.356,0.53
6.358,0.33
6.36,0.23
6.362,0.145
6.364,0.155
6.366,0.24
6.368,0.44
6.37,0.66
6.372,0.725
6.374,0.665
6.376,0.595
6.378,0.39
6.38,0.255
6.382,0.2
6.384,0.25
6.386,0.345
6.388,0.58
6.39,0.71
6.392,0.79
6.394,0.71
6.396,0.61
6.398,0.425
6.4,0.215
6.402,0.225
6.404,0.24
6.406,0.29
6.408,0.545
6.41,0.685
6.412,0.73
6.414,0.695
6.416,0.57
6.418,0.35
6.42,0.17
6.422,0.125
6.424,0.165
6.426,0.255
6.428,0.465
6.43,0.615
6.432,0.655
6.434,0.525
6.436,0.475
6.438,0.18
6.44,0.005
6.442,-0.005
6.444,0.09
6.446,0.255
6.448,0.41
6.45,0.56
6.452,0.56
6.454,0.465
6.456,0.39
6.458,0.16
6.46,0.05
6.462,0.055
6.464,0.03
6.466,0.13
6.468,0.345
6.47,0.5
6.472,0.475
6.474,0.415
6.476,0.35
6.478,0.2
6.48,0.025
6.482,-0.025
6.484,0.02
6.486,0.155
6.488,0.385
6.49,0.5
6.492,0.49
6.494,0.445
6.496,0.31
6.498,0.09
6.5,-0.05
6.502,-0.065
6.504,-0.01
6.506,0.14
6.508,0.34
6.51,0.46
6.512,0.55
6.514,0.46
6.516,0.31
6.518,0.105
6.52,-0.015
6.522,-0.005
6.524,0.08
6.526,0.255
6.528,0.39
6.53,0.51
6.532,0.495
6.534,0.36
6.536,0.305
6.538,0.09
6.54,-0.005
6.542,0.005
6.544,0.06
6.546,0.255
6.548,0.43
6.55,0.525
6.552,0.5
6.554,0.415
6.556,0.29
6.558,0.11
6.56,-0.03
6.562,0.02
6.564,0.065
6.566,0.19
6.568,0.425
6.57,0.53
6.572,0.47
6.574,0.45
6.576,0.275
6.578,0.13
6.58,0.045
6.582,0.02
6.584,0.055
6.586,0.25
6.588,0.45
6.59,0.465
6.592,0.5
6.594,0.415
6.596,0.265
6.598,0.085
6.6,0.085
6.602,0.01
6.604,0.085
6.606,0.325
6.608,0.455
6.61,0.535
6.612,0.52
6.614,0.445
6.616,0.265
6.618,0.03
6.62,-0.005
6.622,-0.02
6.624,0.11
6.626,0.29
6.628,0.47
6.63,0.535
6.632,0.5
6.634,0.485
6.636,0.285
6.638,0.12
6.64,0.055
6.642,0.04
6.644,0.085
6.646,0.23
6.648,0.49
6.65,0.52
6.652,0.48
6.654,0.425
6.656,0.25
6.658,0.06
6.66,0.015
6.662,0.1
6.664,0.14
6.666,0.35
6.668,0.51
6.67,0.57
6.672,0.51
6.674,0.475
6.676,0.25
6.678,0.035
6.68,0.03
6.682,0.025
6.684,0.175
6.686,0.385
6.688,0.52
6.69,0.575
6.692,0.575
6.694,0.435
6.696,0.225
6.698,0.105
6.7,0.01
6.702,0.105
6.704,0.145
6.706,0.39
6.708,0.58
6.71,0.645
6.712,0.575
6.714,0.52
6.716,0.32
6.718,0.1
6.72,0.11
6.722,0.16
6.724,0.24
6.726,0.425
6.728,0.56
6.73,0.635
6.732,0.58
6.734,0.445
6.736,0.145
6.738,0.005
6.74,0.03
6.742,0.075
6.744,0.185
6.746,0.36
6.748,0.485
6.75,0.57
6.752,0.45
6.754,0.42
6.756,0.195
6.758,0.025
6.76,-0.03
6.762,0.065
6.764,0.225
6.766,0.415
6.768,0.59
6.77,0.585
6.772,0.525
6.774,0.355
6.776,0.115
6.778,0.035
6.78,0.01
6.782,0.04
6.784,0.17
6.786,0.405
6.788,0.625
6.79,0.62
6.792,0.55
6.794,0.45
6.796,0.19
6.798,0.03
6.8,0
6.802,0.1
6.804,0.255
6.806,0.455
6.808,0.585
6.81,0.545
6.812,0.49
6.814,0.385
6.816,0.24
6.818,0.05
6.82,0.05
6.822,0.065
6.824,0.2
6.826,0.38
6.828,0.48
6.83,0.48
6.832,0.435
6.834,0.375
6.836,0.14
6.838,0.09
6.84,0.26
6.842,0.385
6.844,0.7
6.846,1.005
6.848,1.27
6.85,1.375
6.852,1.445
6.854,1.31
6.856,1.125
6.858,1.065
6.86,1.1
6.862,1.095
6.864,1.045
6.866,0.855
6.868,0.815
6.87,0.705
6.872,0.625
6.874,0.37
6.876,0.19
6.878,0.125
6.88,0.11
6.882,0.195
6.884,0.35
6.886,0.515
6.888,0.655
6.89,0.605
6.892,0.52
6.894,0.345
6.896,0.145
6.898,0.065
6.9,0.045
6.902,0.11
6.904,0.325
6.906,0.55
6.908,0.635
6.91,0.545
6.912,0.545
6.914,0.35
6.916,0.185
6.918,0.1
6.92,0.095
6.922,0.16
6.924,0.375
6.926,0.52
6.928,0.605
6.93,0.545
6.932,0.51
6.934,0.325
6.936,0.105
6.938,0.05
6.94,0.08
6.942,0.13
6.944,0.36
6.946,0.575
6.948,0.655
6.95,0.6
6.952,0.51
6.954,0.28
6.956,0.13
6.958,0.09
6.96,0.165
6.962,0.23
6.964,0.46
6.966,0.635
6.968,0.645
6.97,0.54
6.972,0.525
6.974,0.295
6.976,0.115
6.978,0.095
6.98,0.155
6.982,0.185
6.984,0.385
6.986,0.56
6.988,0.625
6.99,0.575
6.992,0.54
6.994,0.335
6.996,0.15
6.998,0.145
7,0.205
7.002,0.165
7.004,0.43
7.006,0.585
7.008,0.615
7.01,0.53
7.012,0.515
7.014,0.325
7.016,0.225
7.018,0.2
7.02,0.195
7.022,0.33
7.024,0.52
7.026,0.625
7.028,0.645
7.03,0.59
7.032,0.5
7.034,0.34
7.036,0.195
7.038,0.15
7.04,0.2
7.042,0.34
7.044,0.525
7.046,0.695
7.048,0.715
7.05,0.67
7.052,0.555
7.054,0.37
7.056,0.245
7.058,0.235
7.06,0.275
7.062,0.36
7.064,0.615
7.066,0.71
7.068,0.715
7.07,0.685
7.072,0.585
7.074,0.43
7.076,0.275
7.078,0.28
7.08,0.345
7.082,0.45
7.084,0.66
7.086,0.78
7.088,0.78
7.09,0.775
7.092,0.64
7.094,0.475
7.096,0.325
7.098,0.33
7.1,0.365
7.102,0.5
7.104,0.68
7.106,0.82
7.108,0.845
7.11,0.85
7.112,0.705
7.114,0.49
7.116,0.325
7.118,0.36
7.12,0.43
7.122,0.545
7.124,0.73
7.126,0.895
7.128,0.875
7.13,0.815
7.132,0.66
7.134,0.425
7.136,0.295
7.138,0.29
7.14,0.375
7.142,0.53
7.144,0.69
7.146,0.805
7.148,0.785
7.15,0.745
7.152,0.535
7.154,0.355
7.156,0.185
7.158,0.2
7.16,0.255
7.162,0.415
7.164,0.56
7.166,0.7
7.168,0.73
7.17,0.63
7.172,0.455
7.174,0.255
7.176,0.15
7.178,0.115
7.18,0.12
7.182,0.36
7.184,0.555
7.186,0.685
7.188,0.64
7.19,0.58
7.192,0.41
7.194,0.25
7.196,0.12
7.198,0.12
7.2,0.195
7.202,0.385
7.204,0.535
7.206,0.61
7.208,0.595
7.21,0.6
7.212,0.41
7.214,0.17
7.216,0.05
7.218,0.1
7.22,0.17
7.222,0.405
7.224,0.58
7.226,0.715
7.228,0.66
7.23,0.55
7.232,0.35
7.234,0.16
7.236,0.14
7.238,0.195
7.24,0.205
7.242,0.42
7.244,0.605
7.246,0.68
7.248,0.6
7.25,0.59
7.252,0.38
7.254,0.135
7.256,0.135
7.258,0.19
7.26,0.185
7.262,0.42
7.264,0.59
7.266,0.655
7.268,0.615
7.27,0.56
7.272,0.375
7.274,0.175
7.276,0.115
7.278,0.165
7.28,0.225
7.282,0.475
7.284,0.605
7.286,0.645
7.288,0.555
7.29,0.5
7.292,0.305
7.294,0.145
7.296,0.13
7.298,0.215
7.3,0.3
7.302,0.43
7.304,0.65
7.306,0.745
7.308,0.595
7.31,0.52
7.312,0.295
7.314,0.175
7.316,0.15
7.318,0.24
7.32,0.26
7.322,0.445
7.324,0.645
7.326,0.685
7.328,0.575
7.33,0.5
7.332,0.295
7.334,0.13
7.336,0.085
7.338,0.185
7.34,0.265
7.342,0.5
7.344,0.655
7.346,0.68
7.348,0.6
7.35,0.525
7.352,0.285
7.354,0.17
7.356,0.145
7.358,0.195
7.36,0.27
7.362,0.48
7.364,0.615
7.366,0.64
7.368,0.575
7.37,0.515
7.372,0.3
7.374,0.15
7.376,0.145
7.378,0.18
7.38,0.26
7.382,0.475
7.384,0.59
7.386,0.615
7.388,0.56
7.39,0.42
7.392,0.21
7.394,0.115
7.396,0.135
7.398,0.185
7.4,0.275
7.402,0.555
7.404,0.69
7.406,0.68
7.408,0.625
7.41,0.47
7.412,0.2
7.414,0.095
7.416,0.125
7.418,0.18
7.42,0.375
7.422,0.52
7.424,0.66
7.426,0.675
7.428,0.65
7.43,0.5
7.432,0.315
7.434,0.19
7.436,0.18
7.438,0.2
7.44,0.36
7.442,0.52
7.444,0.68
7.446,0.69
7.448,0.65
7.45,0.51
7.452,0.275
7.454,0.205
7.456,0.24
7.458,0.275
7.46,0.42
7.462,0.615
7.464,0.685
7.466,0.68
7.468,0.65
7.47,0.47
7.472,0.25
7.474,0.135
7.476,0.145
7.478,0.265
7.48,0.475
7.482,0.66
7.484,0.695
7.486,0.705
7.488,0.595
7.49,0.46
7.492,0.25
7.494,0.17
7.496,0.185
7.498,0.21
7.5,0.395
7.502,0.565
7.504,0.675
7.506,0.655
7.508,0.575
7.51,0.4
7.512,0.235
7.514,0.135
7.516,0.19
7.518,0.22
7.52,0.425
7.522,0.65
7.524,0.67
7.526,0.635
7.528,0.6
7.53,0.35
7.532,0.245
7.534,0.21
7.536,0.195
7.538,0.265
7.54,0.415
7.542,0.595
7.544,0.67
7.546,0.61
7.548,0.56
7.55,0.39
7.552,0.225
7.554,0.145
7.556,0.195
7.558,0.24
7.56,0.475
7.562,0.63
7.564,0.67
7.566,0.6
7.568,0.57
7.57,0.36
7.572,0.17
7.574,0.115
7.576,0.235
7.578,0.285
7.58,0.42
7.582,0.545
7.584,0.585
7.586,0.56
7.588,0.53
7.59,0.355
7.592,0.27
7.594,0.38
7.596,0.5
7.598,0.72
7.6,1.055
7.602,1.37
7.604,1.495
7.606,1.605
7.608,1.475
7.61,1.26
7.612,1.19
7.614,1.14
7.616,1.19
7.618,1.015
7.62,0.85
7.622,0.86
7.624,0.82
7.626,0.735
7.628,0.555
7.63,0.36
7.632,0.205
7.634,0.235
7.636,0.27
7.638,0.325
7.64,0.515
7.642,0.7
7.644,0.735
7.646,0.595
7.648,0.48
7.65,0.25
7.652,0.095
7.654,0.165
7.656,0.25
7.658,0.325
7.66,0.495
7.662,0.62
7.664,0.65
7.666,0.625
7.668,0.575
7.67,0.345
7.672,0.195
7.674,0.165
7.676,0.18
7.678,0.325
7.68,0.48
7.682,0.63
7.684,0.665
7.686,0.63
7.688,0.465
7.69,0.3
7.692,0.185
7.694,0.19
7.696,0.265
7.698,0.335
7.7,0.54
7.702,0.67
7.704,0.7
7.706,0.625
7.708,0.48
7.71,0.325
7.712,0.17
7.714,0.145
7.716,0.22
7.718,0.385
7.72,0.58
7.722,0.69
7.724,0.69
7.726,0.61
7.728,0.455
7.73,0.28
7.732,0.175
7.734,0.14
7.736,0.175
7.738,0.39
7.74,0.595
7.742,0.655
7.744,0.725
7.746,0.71
7.748,0.475
7.75,0.29
7.752,0.105
7.754,0.16
7.756,0.255
7.758,0.44
7.76,0.61
7.762,0.72
7.764,0.685
7.766,0.665
7.768,0.5
7.77,0.3
7.772,0.285
7.774,0.245
7.776,0.315
7.778,0.455
7.78,0.635
7.782,0.7
7.784,0.685
7.786,0.69
7.788,0.53
7.79,0.32
7.792,0.215
7.794,0.235
7.796,0.31
7.798,0.51
7.8,0.675
7.802,0.78
7.804,0.76
7.806,0.705
7.808,0.535
7.81,0.315
7.812,0.185
7.814,0.285
7.816,0.365
7.818,0.565
7.82,0.725
7.822,0.785
7.824,0.785
7.826,0.765
7.828,0.545
7.83,0.385
7.832,0.315
7.834,0.31
7.836,0.4
7.838,0.595
7.84,0.75
7.842,0.83
7.844,0.845
7.846,0.805
7.848,0.595
7.85,0.425
7.852,0.35
7.854,0.415
7.856,0.44
7.858,0.655
7.86,0.77
7.862,0.905
7.864,0.89
7.866,0.845
7.868,0.62
7.87,0.46
7.872,0.41
7.874,0.415
7.876,0.47
7.878,0.735
7.88,0.885
7.882,0.86
7.884,0.825
7.886,0.76
7.888,0.595
7.89,0.405
7.892,0.365
7.894,0.42
7.896,0.46
7.898,0.625
7.9,0.775
7.902,0.83
7.904,0.755
7.906,0.66
7.908,0.45
7.91,0.29
7.912,0.225
7.914,0.27
7.916,0.36
7.918,0.545
7.92,0.69
7.922,0.675
7.924,0.695
7.926,0.61
7.928,0.32
7.93,0.185
7.932,0.155
7.934,0.17
7.936,0.22
7.938,0.485
7.94,0.705
7.942,0.625
7.944,0.6
7.946,0.49
7.948,0.27
7.95,0.135
7.952,0.11
7.954,0.19
7.956,0.28
7.958,0.395
7.96,0.595
7.962,0.685
7.964,0.62
7.966,0.455
7.968,0.33
7.97,0.175
7.972,0.14
7.974,0.18
7.976,0.27
7.978,0.44
7.98,0.575
7.982,0.625
7.984,0.585
7.986,0.485
7.988,0.275
7.99,0.14
7.992,0.14
7.994,0.145
7.996,0.185
7.998,0.375
8,0.515
8.002,0.55
8.004,0.595
8.006,0.47
8.008,0.28
8.01,0.15
8.012,0.07
8.014,0.125
8.016,0.335
8.018,0.48
8.02,0.605
8.022,0.645
8.024,0.52
8.026,0.31
8.028,0.195
8.03,0.11
8.032,0.14
8.034,0.185
8.036,0.315
8.038,0.475
8.04,0.57
8.042,0.6
8.044,0.535
8.046,0.385
8.048,0.17
8.05,0.11
8.052,0.125
8.054,0.18
8.056,0.325
8.058,0.5
8.06,0.595
8.062,0.595
8.064,0.54
8.066,0.365
8.068,0.19
8.07,0.07
8.072,0.115
8.074,0.13
8.076,0.32
8.078,0.52
8.08,0.61
8.082,0.55
8.084,0.495
8.086,0.33
8.088,0.13
8.09,0.015
8.092,0.07
8.094,0.105
8.096,0.28
8.098,0.52
8.1,0.605
8.102,0.59
8.104,0.54
8.106,0.32
8.108,0.125
8.11,0.015
8.112,0.07
8.114,0.065
8.116,0.275
8.118,0.45
8.12,0.53
8.122,0.535
8.124,0.5
8.126,0.365
8.128,0.12
8.13,0.045
8.132,0.135
8.134,0.14
8.136,0.24
8.138,0.45
8.14,0.52
8.142,0.515
8.144,0.505
8.146,0.305
8.148,0.165
8.15,0.09
8.152,0.08
8.154,0.1
8.156,0.32
8.158,0.485
8.16,0.6
8.162,0.525
8.164,0.485
8.166,0.275
8.168,0.1
8.17,0.04
8.172,0.07
8.174,0.185
8.176,0.36
8.178,0.45
8.18,0.55
8.182,0.525
8.184,0.52
8.186,0.265
8.188,0.08
8.19,0.06
8.192,0.08
8.194,0.145
8.196,0.355
8.198,0.515
8.2,0.57
8.202,0.585
8.204,0.51
8.206,0.29
8.208,0.095
8.21,0.075
8.212,0.075
8.214,0.16
8.216,0.34
8.218,0.605
8.22,0.6
8.222,0.515
8.224,0.44
8.226,0.2
8.228,0.025
8.23,0.025
8.232,0.11
8.234,0.155
8.236,0.32
8.238,0.52
8.24,0.525
8.242,0.46
8.244,0.355
8.246,0.12
8.248,-0.015
8.25,-0.02
8.252,0.06
8.254,0.135
8.256,0.27
8.258,0.45
8.26,0.455
8.262,0.425
8.264,0.33
8.266,0.16
8.268,-0.025
8.27,0
8.272,0.01
8.274,0.12
8.276,0.29
8.278,0.4
8.28,0.44
8.282,0.4
8.284,0.33
8.286,0.06
8.288,-0.1
8.29,-0.045
8.292,-0.025
8.294,0.145
8.296,0.285
8.298,0.425
8.3,0.44
8.302,0.43
8.304,0.25
8.306,0.095
8.308,-0.035
8.31,-0.06
8.312,-0.01
8.314,0.065
8.316,0.175
8.318,0.26
8.32,0.25
8.322,0.27
8.324,0.195
8.326,0.04
8.328,-0.04
8.33,0.075
8.332,0.225
8.334,0.515
8.336,0.82
8.338,1.1
8.34,1.225
8.342,1.315
8.344,1.185
8.346,0.97
8.348,0.82
8.35,0.915
8.352,0.995
8.354,0.9
8.356,0.7
8.358,0.65
8.36,0.49
8.362,0.415
8.364,0.25
8.366,0.02
8.368,-0.065
8.37,-0.02
8.372,0.025
8.374,0.17
8.376,0.365
8.378,0.455
8.38,0.43
8.382,0.315
8.384,0.155
8.386,-0.055
8.388,-0.185
8.39,-0.03
8.392,0.01
8.394,0.175
8.396,0.32
8.398,0.355
8.4,0.34
8.402,0.27
8.404,0.15
8.406,-0.005
8.408,-0.115
8.41,-0.125
8.412,-0.075
8.414,0.145
8.416,0.295
8.418,0.375
8.42,0.34
8.422,0.28
8.424,0.155
8.426,-0.08
8.428,-0.145
8.43,-0.08
8.432,-0.07
8.434,0.115
8.436,0.305
8.438,0.385
8.44,0.335
8.442,0.31
8.444,0.12
8.446,-0.065
8.448,-0.12
8.45,-0.1
8.452,-0.07
8.454,0.12
8.456,0.335
8.458,0.35
8.46,0.365
8.462,0.32
8.464,0.05
8.466,-0.08
8.468,-0.12
8.47,-0.085
8.472,-0.04
8.474,0.14
8.476,0.31
8.478,0.4
8.48,0.325
8.482,0.295
8.484,0.12
8.486,-0.065
8.488,-0.12
8.49,-0.13
8.492,-0.02
8.494,0.22
8.496,0.365
8.498,0.42
8.5,0.36
8.502,0.24
8.504,0.045
8.506,-0.13
8.508,-0.1
8.51,-0.065
8.512,-0.03
8.514,0.135
8.516,0.335
8.518,0.405
8.52,0.335
8.522,0.25
8.524,0.065
8.526,-0.065
8.528,-0.09
8.53,-0.075
8.532,-0.015
8.534,0.21
8.536,0.39
8.538,0.36
8.54,0.35
8.542,0.22
8.544,0.035
8.546,-0.11
8.548,-0.095
8.55,-0.05
8.552,0.075
8.554,0.225
8.556,0.4
8.558,0.445
8.56,0.37
8.562,0.295
8.564,0.11
8.566,-0.08
8.568,-0.005
8.57,-0.045
8.572,0.155
8.574,0.29
8.576,0.44
8.578,0.465
8.58,0.4
8.582,0.29
8.584,0.16
8.586,-0.015
8.588,-0.02
8.59,0.01
8.592,0.13
8.594,0.305
8.596,0.48
8.598,0.525
8.6,0.46
8.602,0.36
8.604,0.155
8.606,0.04
8.608,-0.02
8.61,0.025
8.612,0.165
8.614,0.325
8.616,0.485
8.618,0.52
8.62,0.44
8.622,0.3
8.624,0.08
8.626,-0.005
8.628,-0.035
8.63,-0.055
8.632,0.065
8.634,0.265
8.636,0.44
8.638,0.39
8.64,0.28
8.642,0.14
8.644,-0.015
8.646,-0.16
8.648,-0.14
8.65,-0.12
8.652,0.015
8.654,0.165
8.656,0.265
8.658,0.265
8.66,0.22
8.662,0.035
8.664,-0.165
8.666,-0.225
8.668,-0.245
8.67,-0.23
8.672,-0.025
8.674,0.165
8.676,0.25
8.678,0.175
8.68,0.14
8.682,-0.035
8.684,-0.225
8.686,-0.365
8.688,-0.345
8.69,-0.25
8.692,-0.055
8.694,0.105
8.696,0.18
8.698,0.16
8.7,0.14
8.702,-0.115
8.704,-0.255
8.706,-0.28
8.708,-0.265
8.71,-0.245
8.712,-0.095
8.714,0.075
8.716,0.185
8.718,0.17
8.72,0.065
8.722,-0.105
8.724,-0.295
8.726,-0.355
8.728,-0.365
8.73,-0.31
8.732,-0.1
8.734,0.1
8.736,0.19
8.738,0.165
8.74,0.145
8.742,-0.095
8.744,-0.295
8.746,-0.35
8.748,-0.33
8.75,-0.3
8.752,-0.095
8.754,0.12
8.756,0.175
8.758,0.085
8.76,0.06
8.762,-0.105
8.764,-0.31
8.766,-0.38
8.768,-0.36
8.77,-0.245
8.772,-0.085
8.774,0.08
8.776,0.085
8.778,0.105
8.78,0.055
8.782,-0.14
8.784,-0.31
8.786,-0.355
8.788,-0.35
8.79,-0.26
8.792,-0.03
8.794,0.13
8.796,0.15
8.798,0.065
8.8,-0.02
8.802,-0.235
8.804,-0.39
8.806,-0.42
8.808,-0.35
8.81,-0.275
8.812,-0.135
8.814,0.075
8.816,0.09
8.818,0.08
8.82,0.035
8.822,-0.2
8.824,-0.33
8.826,-0.415
8.828,-0.33
8.83,-0.26
8.832,-0.075
8.834,0.04
8.836,0.105
8.838,0.065
8.84,-0.01
8.842,-0.24
8.844,-0.38
8.846,-0.48
8.848,-0.415
8.85,-0.265
8.852,-0.07
8.854,0.09
8.856,0.065
8.858,0.03
8.86,-0.07
8.862,-0.285
8.864,-0.455
8.866,-0.48
8.868,-0.39
8.87,-0.3
8.872,-0.11
8.874,0.015
8.876,0.01
8.878,0.015
8.88,-0.045
8.882,-0.275
8.884,-0.445
8.886,-0.45
8.888,-0.41
8.89,-0.32
8.892,-0.14
8.894,0.045
8.896,0.05
8.898,-0.025
8.9,-0.105
8.902,-0.28
8.904,-0.46
8.906,-0.46
8.908,-0.4
8.91,-0.305
8.912,-0.115
8.914,0.08
8.916,0.055
8.918,-0.07
8.92,-0.165
8.922,-0.36
8.924,-0.485
8.926,-0.425
8.928,-0.395
8.93,-0.27
8.932,-0.075
8.934,0.03
8.936,0.055
8.938,0.005
8.94,-0.145
8.942,-0.335
8.944,-0.485
8.946,-0.48
8.948,-0.435
8.95,-0.195
8.952,-0.06
8.954,0.07
8.956,0.065
8.958,0.035
8.96,-0.14
8.962,-0.33
8.964,-0.45
8.966,-0.44
8.968,-0.35
8.97,-0.2
8.972,-0.04
8.974,0.04
8.976,-0.01
8.978,-0.015
8.98,-0.14
8.982,-0.355
8.984,-0.45
8.986,-0.375
8.988,-0.36
8.99,-0.175
8.992,-0.06
8.994,0.055
8.996,-0.03
8.998,-0.08
9,-0.255
9.002,-0.43
9.004,-0.52
9.006,-0.51
9.008,-0.425
9.01,-0.24
9.012,-0.05
9.014,0.015
9.016,-0.02
9.018,-0.055
9.02,-0.25
9.022,-0.435
9.024,-0.555
9.026,-0.49
9.028,-0.505
9.03,-0.24
9.032,-0.06
9.034,0.005
9.036,-0.045
9.038,-0.045
9.04,-0.26
9.042,-0.44
9.044,-0.495
9.046,-0.53
9.048,-0.485
9.05,-0.24
9.052,-0.08
9.054,-0.075
9.056,-0.085
9.058,-0.12
9.06,-0.235
9.062,-0.41
9.064,-0.485
9.066,-0.545
9.068,-0.46
9.07,-0.255
9.072,-0.09
9.074,-0.02
9.076,-0.065
9.078,-0.1
9.08,-0.305
9.082,-0.485
9.084,-0.56
9.086,-0.535
9.088,-0.53
9.09,-0.325
9.092,-0.2
9.094,-0.06
9.096,-0.02
9.098,-0.03
9.1,-0.055
9.102,-0.06
9.104,0
9.106,0.205
9.108,0.415
9.11,0.75
9.112,0.96
9.114,0.98
9.116,0.925
9.118,0.905
9.12,0.705
9.122,0.445
9.124,0.075
9.126,-0.165
9.128,-0.205
9.13,-0.04
9.132,0.02
9.134,0.065
9.136,0
9.138,-0.055
9.14,-0.285
9.142,-0.455
9.144,-0.495
9.146,-0.47
9.148,-0.355
9.15,-0.155
9.152,-0.01
9.154,0
9.156,-0.015
9.158,-0.155
9.16,-0.34
9.162,-0.515
9.164,-0.535
9.166,-0.495
9.168,-0.39
9.17,-0.16
9.172,-0.015
9.174,0.04
9.176,-0.03
9.178,-0.18
9.18,-0.395
9.182,-0.49
9.184,-0.51
9.186,-0.46
9.188,-0.375
9.19,-0.18
9.192,0
9.194,0.04
9.196,-0.1
9.198,-0.215
9.2,-0.425
9.202,-0.565
9.204,-0.475
9.206,-0.395
9.208,-0.32
9.21,-0.115
9.212,0.06
9.214,0.04
9.216,-0.05
9.218,-0.205
9.22,-0.345
9.222,-0.47
9.224,-0.495
9.226,-0.43
9.228,-0.3
9.23,-0.07
9.232,0.01
9.234,0.02
9.236,-0.055
9.238,-0.2
9.24,-0.36
9.242,-0.47
9.244,-0.47
9.246,-0.425
9.248,-0.295
9.25,-0.08
9.252,0.04
9.254,0.04
9.256,-0.05
9.258,-0.185
9.26,-0.35
9.262,-0.505
9.264,-0.52
9.266,-0.395
9.268,-0.215
9.27,-0.035
9.272,0.07
9.274,0.04
9.276,0.01
9.278,-0.14
9.28,-0.34
9.282,-0.495
9.284,-0.42
9.286,-0.355
9.288,-0.155
9.29,0.025
9.292,0.065
9.294,0.075
9.296,0.01
9.298,-0.115
9.3,-0.3
9.302,-0.41
9.304,-0.405
9.306,-0.35
9.308,-0.13
9.31,0.025
9.312,0.115
9.314,0.07
9.316,0.005
9.318,-0.155
9.32,-0.34
9.322,-0.46
9.324,-0.395
9.326,-0.295
9.328,-0.11
9.33,0.085
9.332,0.17
9.334,0.175
9.336,0.13
9.338,-0.095
9.34,-0.32
9.342,-0.345
9.344,-0.265
9.346,-0.215
9.348,-0.035
9.35,0.13
9.352,0.23
9.354,0.155
9.356,0.12
9.358,-0.065
9.36,-0.215
9.362,-0.28
9.364,-0.245
9.366,-0.195
9.368,0.035
9.37,0.2
9.372,0.23
9.374,0.275
9.376,0.21
9.378,-0.05
9.38,-0.255
9.382,-0.225
9.384,-0.205
9.386,-0.165
9.388,0.03
9.39,0.21
9.392,0.245
9.394,0.225
9.396,0.165
9.398,-0.065
9.4,-0.255
9.402,-0.335
9.404,-0.27
9.406,-0.22
9.408,-0.015
9.41,0.115
9.412,0.14
9.414,0.085
9.416,0.02
9.418,-0.195
9.42,-0.38
9.422,-0.385
9.424,-0.345
9.426,-0.305
9.428,-0.09
9.43,0.09
9.432,0.07
9.434,-0.015
9.436,-0.085
9.438,-0.23
9.44,-0.44
9.442,-0.45
9.444,-0.405
9.446,-0.335
9.448,-0.205
9.45,0.005
9.452,0.1
9.454,0.035
9.456,-0.115
9.458,-0.35
9.46,-0.495
9.462,-0.44
9.464,-0.42
9.466,-0.315
9.468,-0.14
9.47,0.03
9.472,0.055
9.474,-0.05
9.476,-0.115
9.478,-0.32
9.48,-0.485
9.482,-0.445
9.484,-0.42
9.486,-0.315
9.488,-0.105
9.49,0.005
9.492,0.02
9.494,-0.03
9.496,-0.155
9.498,-0.325
9.5,-0.48
9.502,-0.51
9.504,-0.425
9.506,-0.315
9.508,-0.105
9.51,0.015
9.512,0.04
9.514,0.065
9.516,-0.07
9.518,-0.325
9.52,-0.475
9.522,-0.45
9.524,-0.435
9.526,-0.305
9.528,-0.12
9.53,0.045
9.532,-0.03
9.534,-0.045
9.536,-0.15
9.538,-0.32
9.54,-0.44
9.542,-0.45
9.544,-0.4
9.546,-0.235
9.548,-0.11
9.55,0.055
9.552,0.06
9.554,0.005
9.556,-0.15
9.558,-0.325
9.56,-0.46
9.562,-0.47
9.564,-0.41
9.566,-0.235
9.568,-0.075
9.57,0.025
9.572,0.03
9.574,0.005
9.576,-0.145
9.578,-0.33
9.58,-0.395
9.582,-0.425
9.584,-0.4
9.586,-0.255
9.588,-0.015
9.59,0.085
9.592,0.04
9.594,-0.01
9.596,-0.16
9.598,-0.315
9.6,-0.425
9.602,-0.415
9.604,-0.375
9.606,-0.185
9.608,0.015
9.61,0.085
9.612,0.045
9.614,0.02
9.616,-0.115
9.618,-0.275
9.62,-0.385
9.622,-0.4
9.624,-0.38
9.626,-0.145
9.628,0.02
9.63,0.14
9.632,0.12
9.634,0.01
9.636,-0.155
9.638,-0.345
9.64,-0.41
9.642,-0.405
9.644,-0.345
9.646,-0.11
9.648,0.07
9.65,0.135
9.652,0.08
9.654,0.015
9.656,-0.155
9.658,-0.325
9.66,-0.415
9.662,-0.4
9.664,-0.33
9.666,-0.07
9.668,0.1
9.67,0.14
9.672,0.085
9.674,0.055
9.676,-0.165
9.678,-0.33
9.68,-0.39
9.682,-0.305
9.684,-0.28
9.686,-0.085
9.688,0.08
9.69,0.15
9.692,0.135
9.694,0.045
9.696,-0.155
9.698,-0.265
9.7,-0.34
9.702,-0.265
9.704,-0.205
9.706,-0.01
9.708,0.11
9.71,0.145
9.712,0.15
9.714,0.12
9.716,-0.12
9.718,-0.25
9.72,-0.315
9.722,-0.29
9.724,-0.17
9.726,0.02
9.728,0.225
9.73,0.275
9.732,0.235
9.734,0.1
9.736,-0.095
9.738,-0.265
9.74,-0.275
9.742,-0.24
9.744,-0.215
9.746,-0.03
9.748,0.14
9.75,0.185
9.752,0.125
9.754,0.03
9.756,-0.18
9.758,-0.34
9.76,-0.33
9.762,-0.32
9.764,-0.195
9.766,0.025
9.768,0.195
9.77,0.215
9.772,0.15
9.774,0.05
9.776,-0.155
9.778,-0.305
9.78,-0.295
9.782,-0.265
9.784,-0.17
9.786,0.015
9.788,0.17
9.79,0.225
9.792,0.155
9.794,0.045
9.796,-0.14
9.798,-0.275
9.8,-0.305
9.802,-0.255
9.804,-0.1
9.806,0.1
9.808,0.19
9.81,0.195
9.812,0.14
9.814,0.04
9.816,-0.105
9.818,-0.24
9.82,-0.275
9.822,-0.185
9.824,-0.09
9.826,0.04
9.828,0.17
9.83,0.21
9.832,0.19
9.834,0.055
9.836,-0.23
9.838,-0.385
9.84,-0.345
9.842,-0.325
9.844,-0.06
9.846,0.15
9.848,0.345
9.85,0.415
9.852,0.47
9.854,0.46
9.856,0.435
9.858,0.525
9.86,0.655
9.862,0.795
9.864,1
9.866,1.185
9.868,1.36
9.87,1.375
9.872,1.25
9.874,0.785
9.876,0.28
9.878,-0.005
9.88,-0.08
9.882,-0.095
9.884,0.05
9.886,0.235
9.888,0.355
9.89,0.3
9.892,0.255
9.894,0.085
9.896,-0.115
9.898,-0.165
9.9,-0.135
9.902,-0.115
9.904,0.045
9.906,0.205
9.908,0.32
9.91,0.27
9.912,0.265
9.914,0.1
9.916,-0.115
9.918,-0.19
9.92,-0.175
9.922,-0.115
9.924,0.065
9.926,0.19
9.928,0.29
9.93,0.28
9.932,0.315
9.934,0.075
9.936,-0.14
9.938,-0.195
9.94,-0.085
9.942,-0.08
9.944,0.09
9.946,0.26
9.948,0.345
9.95,0.345
9.952,0.29
9.954,0.095
9.956,-0.055
9.958,-0.165
9.96,-0.12
9.962,-0.055
9.964,0.12
9.966,0.29
9.968,0.33
9.97,0.295
9.972,0.3
9.974,0.115
9.976,-0.045
9.978,-0.11
9.98,-0.06
9.982,0
9.984,0.135
9.986,0.33
9.988,0.36
9.99,0.335
9.992,0.32
9.994,0.125
9.996,-0.075
9.998,-0.125
