0,0.025
0.002,0.03
0.004,0.055
0.006,0.06
0.008,0.11
0.01,0.09
0.012,0.12
0.014,0.15
0.016,0.14
0.018,0.095
0.02,0.075
0.022,0.075
0.024,0.145
0.026,0.145
0.028,0.155
0.03,0.14
0.032,0.16
0.034,0.125
0.036,0.09
0.038,0.065
0.04,0.06
0.042,0.09
0.044,0.12
0.046,0.165
0.048,0.22
0.05,0.22
0.052,0.215
0.054,0.205
0.056,0.2
0.058,0.165
0.06,0.13
0.062,0.14
0.064,0.145
0.066,0.16
0.068,0.2
0.07,0.245
0.072,0.28
0.074,0.27
0.076,0.25
0.078,0.195
0.08,0.205
0.082,0.225
0.084,0.205
0.086,0.255
0.088,0.32
0.09,0.33
0.092,0.315
0.094,0.29
0.096,0.265
0.098,0.22
0.1,0.25
0.102,0.255
0.104,0.275
0.106,0.3
0.108,0.335
0.11,0.3
0.112,0.28
0.114,0.305
0.116,0.26
0.118,0.265
0.12,0.255
0.122,0.26
0.124,0.265
0.126,0.245
0.128,0.285
0.13,0.3
0.132,0.29
0.134,0.24
0.136,0.245
0.138,0.19
0.14,0.19
0.142,0.155
0.144,0.165
0.146,0.19
0.148,0.2
0.15,0.19
0.152,0.19
0.154,0.175
0.156,0.165
0.158,0.135
0.16,0.105
0.162,0.08
0.164,0.07
0.166,0.09
0.168,0.155
0.17,0.145
0.172,0.11
0.174,0.11
0.176,0.115
0.178,0.09
0.18,0.035
0.182,0.06
0.184,0.045
0.186,0.115
0.188,0.11
0.19,0.115
0.192,0.1
0.194,0.07
0.196,0.075
0.198,0.055
0.2,0.06
0.202,0.085
0.204,0.1
0.206,0.12
0.208,0.1
0.21,0.085
0.212,0.075
0.214,0.11
0.216,0.065
0.218,0.01
0.22,0.055
0.222,0.09
0.224,0.065
0.226,0.065
0.228,0.1
0.23,0.09
0.232,0.07
0.234,0.05
0.236,0.01
0.238,0.02
0.24,0.06
0.242,0.08
0.244,0.045
0.246,0.065
0.248,0.085
0.25,0.1
0.252,0.095
0.254,0.06
0.256,0.045
0.258,0.04
0.26,0.095
0.262,0.06
0.264,0.06
0.266,0.1
0.268,0.12
0.27,0.135
0.272,0.11
0.274,0.1
0.276,0.055
0.278,0.04
0.28,0.005
0.282,0.07
0.284,0.07
0.286,0.115
0.288,0.11
0.29,0.17
0.292,0.13
0.294,0.08
0.296,0.045
0.298,0.075
0.3,0.08
0.302,0.11
0.304,0.085
0.306,0.11
0.308,0.135
0.31,0.135
0.312,0.095
0.314,0.1
0.316,0.03
0.318,0.055
0.32,0.045
0.322,0.09
0.324,0.105
0.326,0.105
0.328,0.09
0.33,0.105
0.332,0.11
0.334,0.07
0.336,0.005
0.338,0.035
0.34,0.08
0.342,0.06
0.344,0.085
0.346,0.11
0.348,0.145
0.35,0.14
0.352,0.075
0.354,0.085
0.356,0.04
0.358,0.04
0.36,0.035
0.362,0.06
0.364,0.085
0.366,0.105
0.368,0.13
0.37,0.12
0.372,0.075
0.374,0.055
0.376,0.045
0.378,0.04
0.38,0.025
0.382,0.055
0.384,0.07
0.386,0.07
0.388,0.06
0.39,0.11
0.392,0.14
0.394,0.09
0.396,0.055
0.398,0.06
0.4,0.055
0.402,0.045
0.404,0.085
0.406,0.105
0.408,0.08
0.41,0.09
0.412,0.065
0.414,0
0.416,0.025
0.418,0.025
0.42,0.04
0.422,0.07
0.424,0.09
0.426,0.1
0.428,0.1
0.43,0.085
0.432,0.09
0.434,0.07
0.436,0.015
0.438,0.04
0.44,0.085
0.442,0.1
0.444,0.135
0.446,0.115
0.448,0.085
0.45,0.085
0.452,0.105
0.454,0.085
0.456,0.07
0.458,0.055
0.46,0.05
0.462,0.07
0.464,0.12
0.466,0.165
0.468,0.155
0.47,0.115
0.472,0.12
0.474,0.09
0.476,0.05
0.478,0.06
0.48,0.115
0.482,0.105
0.484,0.125
0.486,0.135
0.488,0.15
0.49,0.085
0.492,0.1
0.494,0.125
0.496,0.14
0.498,0.125
0.5,0.165
0.502,0.15
0.504,0.145
0.506,0.155
0.508,0.17
0.51,0.175
0.512,0.09
0.514,0.01
0.516,0.03
0.518,0.01
0.52,0.085
0.522,0.13
0.524,0.12
0.526,0.09
0.528,0.125
0.53,0.12
0.532,0.065
0.534,0.015
0.536,0.045
0.538,0.055
0.54,0.05
0.542,0.085
0.544,0.11
0.546,0.095
0.548,0.085
0.55,0.075
0.552,0.075
0.554,0.04
0.556,0.05
0.558,0.04
0.56,0.05
0.562,0.1
0.564,0.125
0.566,0.065
0.568,0.105
0.57,0.09
0.572,0.04
0.574,0.01
0.576,0.03
0.578,0.03
0.58,0.035
0.582,0.055
0.584,0.11
0.586,0.115
0.588,0.07
0.59,0.08
0.592,0.065
0.594,0.075
0.596,0.085
0.598,0.015
0.6,0.01
0.602,0.05
0.604,0.165
0.606,0.095
0.608,0.12
0.61,0.105
0.612,0.085
0.614,0.12
0.616,0.11
0.618,0.105
0.62,0.1
0.622,0.175
0.624,0.245
0.626,0.235
0.628,0.185
0.63,0.115
0.632,0.07
0.634,0.07
0.636,0.15
0.638,0.175
0.64,0.22
0.642,0.295
0.644,0.305
0.646,0.28
0.648,0.25
0.65,0.17
0.652,0.095
0.654,0.03
0.656,0.07
0.658,0.005
0.66,-0.035
0.662,-0.065
0.664,-0.085
0.666,-0.095
0.668,-0.075
0.67,-0.115
0.672,-0.11
0.674,-0.05
0.676,0.07
0.678,0.075
0.68,0.075
0.682,0.09
0.684,0.14
0.686,0.145
0.688,0.125
0.69,0.115
0.692,0.065
0.694,0.025
0.696,0.04
0.698,0.075
0.7,0.065
0.702,0.1
0.704,0.135
0.706,0.12
0.708,0.11
0.71,0.13
0.712,0.07
0.714,0.045
0.716,0.06
0.718,0.055
0.72,0.035
0.722,0.1
0.724,0.145
0.726,0.18
0.728,0.195
0.73,0.13
0.732,0.04
0.734,0.005
0.736,0.05
0.738,0.125
0.74,0.085
0.742,0.14
0.744,0.205
0.746,0.165
0.748,0.155
0.75,0.155
0.752,0.095
0.754,0.055
0.756,0.08
0.758,0.12
0.76,0.105
0.762,0.155
0.764,0.14
0.766,0.165
0.768,0.15
0.77,0.14
0.772,0.06
0.774,0.065
0.776,0.09
0.778,0.125
0.78,0.12
0.782,0.16
0.784,0.14
0.786,0.165
0.788,0.15
0.79,0.205
0.792,0.145
0.794,0.12
0.796,0.1
0.798,0.185
0.8,0.16
0.802,0.195
0.804,0.215
0.806,0.185
0.808,0.19
0.81,0.175
0.812,0.12
0.814,0.135
0.816,0.16
0.818,0.18
0.82,0.185
0.822,0.225
0.824,0.235
0.826,0.275
0.828,0.25
0.83,0.2
0.832,0.15
0.834,0.175
0.836,0.2
0.838,0.245
0.84,0.25
0.842,0.285
0.844,0.29
0.846,0.295
0.848,0.265
0.85,0.255
0.852,0.245
0.854,0.245
0.856,0.235
0.858,0.275
0.86,0.3
0.862,0.34
0.864,0.395
0.866,0.385
0.868,0.315
0.87,0.26
0.872,0.26
0.874,0.265
0.876,0.265
0.878,0.305
0.88,0.32
0.882,0.365
0.884,0.375
0.886,0.41
0.888,0.36
0.89,0.3
0.892,0.275
0.894,0.285
0.896,0.255
0.898,0.25
0.9,0.3
0.902,0.335
0.904,0.335
0.906,0.305
0.908,0.22
0.91,0.185
0.912,0.145
0.914,0.195
0.916,0.175
0.918,0.185
0.92,0.17
0.922,0.2
0.924,0.195
0.926,0.22
0.928,0.19
0.93,0.14
0.932,0.085
0.934,0.115
0.936,0.115
0.938,0.105
0.94,0.115
0.942,0.16
0.944,0.135
0.946,0.1
0.948,0.065
0.95,0.06
0.952,0.035
0.954,0.075
0.956,0.07
0.958,0.08
0.96,0.135
0.962,0.145
0.964,0.13
0.966,0.13
0.968,0.1
0.97,0.055
0.972,0
0.974,0.025
0.976,0.045
0.978,0.06
0.98,0.16
0.982,0.175
0.984,0.095
0.986,0.07
0.988,0.13
0.99,0.095
0.992,0.045
0.994,-0.045
0.996,0.02
0.998,0.04
1,0.105
1.002,0.13
1.004,0.12
1.006,0.115
1.008,0.1
1.01,0.015
1.012,-0.01
1.014,0.035
1.016,0.085
1.018,0.055
1.02,0.07
1.022,0.1
1.024,0.12
1.026,0.08
1.028,0.07
1.03,0.055
1.032,0.035
1.034,0.03
1.036,0.04
1.038,0.05
1.04,0.11
1.042,0.12
1.044,0.1
1.046,0.105
1.048,0.07
1.05,0.095
1.052,0.07
1.054,0.07
1.056,0.065
1.058,0.055
1.06,0.1
1.062,0.115
1.064,0.135
1.066,0.115
1.068,0.1
1.07,0.07
1.072,0.07
1.074,0.085
1.076,0.16
1.078,0.11
1.08,0.11
1.082,0.12
1.084,0.13
1.086,0.12
1.088,0.12
1.09,0.065
1.092,0.065
1.094,0.07
1.096,0.115
1.098,0.11
1.1,0.11
1.102,0.125
1.104,0.145
1.106,0.14
1.108,0.105
1.11,0.055
1.112,0.03
1.114,0.05
1.116,0.07
1.118,0.065
1.12,0.115
1.122,0.14
1.124,0.11
1.126,0.115
1.128,0.075
1.13,0
1.132,0.015
1.134,0.03
1.136,0.085
1.138,0.13
1.14,0.135
1.142,0.125
1.144,0.125
1.146,0.115
1.148,0.085
1.15,0.04
1.152,0.045
1.154,0.04
1.156,0.08
1.158,0.075
1.16,0.16
1.162,0.165
1.164,0.125
1.166,0.06
1.168,0.04
1.17,0.03
1.172,0.055
1.174,0.085
1.176,0.12
1.178,0.12
1.18,0.145
1.182,0.13
1.184,0.075
1.186,0.06
1.188,0.105
1.19,0.13
1.192,0.11
1.194,0.085
1.196,0.145
1.198,0.165
1.2,0.2
1.202,0.15
1.204,0.18
1.206,0.145
1.208,0.085
1.21,0.09
1.212,0.095
1.214,0.09
1.216,0.14
1.218,0.19
1.22,0.19
1.222,0.18
1.224,0.18
1.226,0.16
1.228,0.135
1.23,0.1
1.232,0.075
1.234,0.09
1.236,0.1
1.238,0.11
1.24,0.145
1.242,0.15
1.244,0.12
1.246,0.09
1.248,0.05
1.25,0.035
1.252,0.05
1.254,0.055
1.256,0.075
1.258,0.045
1.26,0.095
1.262,0.13
1.264,0.15
1.266,0.13
1.268,0.08
1.27,0.04
1.272,0.02
1.274,0.02
1.276,0.05
1.278,0.105
1.28,0.11
1.282,0.085
1.284,0.095
1.286,0.115
1.288,0.07
1.29,0.03
1.292,0.055
1.294,0.04
1.296,0.065
1.298,0.06
1.3,0.06
1.302,0.075
1.304,0.055
1.306,0.055
1.308,0.05
1.31,0.11
1.312,0.085
1.314,0.07
1.316,0.065
1.318,0.095
1.32,0.105
1.322,0.1
1.324,0.05
1.326,0.055
1.328,0.045
1.33,0.06
1.332,0.09
1.334,0.155
1.336,0.1
1.338,0.155
1.34,0.175
1.342,0.19
1.344,0.175
1.346,0.155
1.348,0.1
1.35,0.08
1.352,0.12
1.354,0.135
1.356,0.105
1.358,0.1
1.36,0.14
1.362,0.22
1.364,0.225
1.366,0.26
1.368,0.25
1.37,0.265
1.372,0.22
1.374,0.17
1.376,0.145
1.378,0.2
1.38,0.1
1.382,0.115
1.384,0.015
1.386,-0.03
1.388,-0.11
1.39,-0.165
1.392,-0.165
1.394,-0.055
1.396,-0.02
1.398,0.015
1.4,0.075
1.402,0.09
1.404,0.11
1.406,0.085
1.408,0.09
1.41,0.07
1.412,0.03
1.414,0.1
1.416,0.12
1.418,0.13
1.42,0.12
1.422,0.12
1.424,0.1
1.426,0.04
1.428,0.015
1.43,0.07
1.432,0.095
1.434,0.095
1.436,0.105
1.438,0.17
1.44,0.135
1.442,0.12
1.444,0.135
1.446,0.055
1.448,0.085
1.45,0.11
1.452,0.06
1.454,0.075
1.456,0.15
1.458,0.14
1.46,0.12
1.462,0.165
1.464,0.14
1.466,0.125
1.468,0.085
1.47,0.075
1.472,0.075
1.474,0.1
1.476,0.145
1.478,0.17
1.48,0.175
1.482,0.105
1.484,0.1
1.486,0.065
1.488,0.065
1.49,0.11
1.492,0.145
1.494,0.14
1.496,0.14
1.498,0.165
1.5,0.17
1.502,0.16
1.504,0.155
1.506,0.09
1.508,0.045
1.51,0.12
1.512,0.145
1.514,0.155
1.516,0.165
1.518,0.17
1.52,0.175
1.522,0.195
1.524,0.175
1.526,0.145
1.528,0.115
1.53,0.115
1.532,0.15
1.534,0.17
1.536,0.21
1.538,0.26
1.54,0.24
1.542,0.22
1.544,0.165
1.546,0.155
1.548,0.12
1.55,0.15
1.552,0.155
1.554,0.215
1.556,0.26
1.558,0.28
1.56,0.28
1.562,0.28
1.564,0.25
1.566,0.22
1.568,0.21
1.57,0.28
1.572,0.305
1.574,0.295
1.576,0.325
1.578,0.325
1.58,0.305
1.582,0.29
1.584,0.295
1.586,0.29
1.588,0.29
1.59,0.265
1.592,0.255
1.594,0.315
1.596,0.4
1.598,0.41
1.6,0.425
1.602,0.37
1.604,0.33
1.606,0.31
1.608,0.31
1.61,0.305
1.612,0.3
1.614,0.285
1.616,0.315
1.618,0.35
1.62,0.36
1.622,0.34
1.624,0.295
1.626,0.255
1.628,0.26
1.63,0.25
1.632,0.25
1.634,0.25
1.636,0.265
1.638,0.255
1.64,0.245
1.642,0.225
1.644,0.215
1.646,0.155
1.648,0.185
1.65,0.135
1.652,0.14
1.654,0.18
1.656,0.17
1.658,0.145
1.66,0.175
1.662,0.195
1.664,0.175
1.666,0.15
1.668,0.095
1.67,0.01
1.672,0.115
1.674,0.145
1.676,0.185
1.678,0.17
1.68,0.13
1.682,0.1
1.684,0.1
1.686,0.085
1.688,0.09
1.69,0.075
1.692,0.095
1.694,0.115
1.696,0.18
1.698,0.16
1.7,0.135
1.702,0.095
1.704,0.115
1.706,0.115
1.708,0.095
1.71,0.065
1.712,0.13
1.714,0.105
1.716,0.145
1.718,0.145
1.72,0.105
1.722,0.12
1.724,0.125
1.726,0.055
1.728,0.075
1.73,0.08
1.732,0.09
1.734,0.085
1.736,0.115
1.738,0.125
1.74,0.15
1.742,0.1
1.744,0.08
1.746,0.09
1.748,0.135
1.75,0.075
1.752,0.065
1.754,0.18
1.756,0.185
1.758,0.11
1.76,0.135
1.762,0.145
1.764,0.11
1.766,0.125
1.768,0.14
1.77,0.105
1.772,0.115
1.774,0.16
1.776,0.155
1.778,0.11
1.78,0.14
1.782,0.17
1.784,0.12
1.786,0.09
1.788,0.095
1.79,0.11
1.792,0.115
1.794,0.185
1.796,0.2
1.798,0.22
1.8,0.18
1.802,0.145
1.804,0.105
1.806,0.085
1.808,0.105
1.81,0.145
1.812,0.12
1.814,0.125
1.816,0.165
1.818,0.165
1.82,0.17
1.822,0.155
1.824,0.115
1.826,0.095
1.828,0.105
1.83,0.12
1.832,0.155
1.834,0.17
1.836,0.2
1.838,0.185
1.84,0.14
1.842,0.13
1.844,0.16
1.846,0.09
1.848,0.07
1.85,0.135
1.852,0.14
1.854,0.19
1.856,0.165
1.858,0.185
1.86,0.16
1.862,0.155
1.864,0.1
1.866,0.1
1.868,0.075
1.87,0.115
1.872,0.09
1.874,0.15
1.876,0.175
1.878,0.19
1.88,0.18
1.882,0.145
1.884,0.08
1.886,0.07
1.888,0.085
1.89,0.125
1.892,0.135
1.894,0.16
1.896,0.18
1.898,0.185
1.9,0.2
1.902,0.17
1.904,0.1
1.906,0.12
1.908,0.085
1.91,0.105
1.912,0.14
1.914,0.215
1.916,0.235
1.918,0.215
1.92,0.175
1.922,0.22
1.924,0.145
1.926,0.105
1.928,0.115
1.93,0.165
1.932,0.185
1.934,0.22
1.936,0.215
1.938,0.235
1.94,0.205
1.942,0.17
1.944,0.115
1.946,0.125
1.948,0.175
1.95,0.155
1.952,0.11
1.954,0.175
1.956,0.23
1.958,0.26
1.96,0.27
1.962,0.195
1.964,0.19
1.966,0.205
1.968,0.19
1.97,0.235
1.972,0.225
1.974,0.195
1.976,0.245
1.978,0.23
1.98,0.175
1.982,0.135
1.984,0.1
1.986,0.085
1.988,0.085
1.99,0.095
1.992,0.145
1.994,0.2
1.996,0.15
1.998,0.165
2,0.175
2.002,0.15
2.004,0.095
2.006,0.12
2.008,0.115
2.01,0.155
2.012,0.145
2.014,0.195
2.016,0.185
2.018,0.15
2.02,0.11
2.022,0.105
2.024,0.105
2.026,0.115
2.028,0.135
2.03,0.12
2.032,0.15
2.034,0.18
2.036,0.155
2.038,0.145
2.04,0.125
2.042,0.1
2.044,0.09
2.046,0.1
2.048,0.12
2.05,0.115
2.052,0.135
2.054,0.185
2.056,0.185
2.058,0.15
2.06,0.135
2.062,0.115
2.064,0.13
2.066,0.125
2.068,0.105
2.07,0.135
2.072,0.225
2.074,0.25
2.076,0.24
2.078,0.26
2.08,0.245
2.082,0.255
2.084,0.22
2.086,0.195
2.088,0.22
2.09,0.205
2.092,0.225
2.094,0.235
2.096,0.205
2.098,0.265
2.1,0.315
2.102,0.335
2.104,0.32
2.106,0.28
2.108,0.245
2.11,0.225
2.112,0.24
2.114,0.22
2.116,0.18
2.118,0.155
2.12,0.06
2.122,-0.02
2.124,-0.065
2.126,-0.04
2.128,-0.02
2.13,-0.02
2.132,0.04
2.134,0.165
2.136,0.18
2.138,0.135
2.14,0.165
2.142,0.135
2.144,0.125
2.146,0.125
2.148,0.135
2.15,0.16
2.152,0.21
2.154,0.195
2.156,0.16
2.158,0.15
2.16,0.16
2.162,0.12
2.164,0.12
2.166,0.14
2.168,0.165
2.17,0.145
2.172,0.19
2.174,0.195
2.176,0.175
2.178,0.175
2.18,0.17
2.182,0.1
2.184,0.135
2.186,0.155
2.188,0.18
2.19,0.155
2.192,0.23
2.194,0.21
2.196,0.235
2.198,0.195
2.2,0.15
2.202,0.145
2.204,0.13
2.206,0.105
2.208,0.145
2.21,0.185
2.212,0.24
2.214,0.23
2.216,0.245
2.218,0.205
2.22,0.185
2.222,0.18
2.224,0.17
2.226,0.165
2.228,0.195
2.23,0.19
2.232,0.235
2.234,0.23
2.236,0.24
2.238,0.265
2.24,0.24
2.242,0.155
2.244,0.17
2.246,0.19
2.248,0.2
2.25,0.24
2.252,0.26
2.254,0.23
2.256,0.235
2.258,0.205
2.26,0.21
2.262,0.19
2.264,0.2
2.266,0.21
2.268,0.23
2.27,0.225
2.272,0.26
2.274,0.265
2.276,0.31
2.278,0.265
2.28,0.225
2.282,0.185
2.284,0.24
2.286,0.235
2.288,0.26
2.29,0.315
2.292,0.35
2.294,0.305
2.296,0.33
2.298,0.325
2.3,0.315
2.302,0.28
2.304,0.305
2.306,0.3
2.308,0.365
2.31,0.385
2.312,0.455
2.314,0.43
2.316,0.38
2.318,0.355
2.32,0.345
2.322,0.39
2.324,0.39
2.326,0.335
2.328,0.385
2.33,0.42
2.332,0.445
2.334,0.44
2.336,0.42
2.338,0.415
2.34,0.365
2.342,0.35
2.344,0.335
2.346,0.38
2.348,0.395
2.35,0.415
2.352,0.44
2.354,0.415
2.356,0.395
2.358,0.39
2.36,0.325
2.362,0.3
2.364,0.295
2.366,0.27
2.368,0.29
2.37,0.4
2.372,0.385
2.374,0.365
2.376,0.31
2.378,0.275
2.38,0.245
2.382,0.215
2.384,0.205
2.386,0.245
2.388,0.26
2.39,0.28
2.392,0.28
2.394,0.275
2.396,0.2
2.398,0.2
2.4,0.245
2.402,0.18
2.404,0.17
2.406,0.18
2.408,0.18
2.41,0.215
2.412,0.235
2.414,0.24
2.416,0.225
2.418,0.21
2.42,0.155
2.422,0.14
2.424,0.125
2.426,0.15
2.428,0.16
2.43,0.22
2.432,0.22
2.434,0.195
2.436,0.19
2.438,0.215
2.44,0.15
2.442,0.135
2.444,0.13
2.446,0.17
2.448,0.14
2.45,0.2
2.452,0.24
2.454,0.205
2.456,0.18
2.458,0.21
2.46,0.185
2.462,0.185
2.464,0.115
2.466,0.18
2.468,0.18
2.47,0.21
2.472,0.19
2.474,0.23
2.476,0.19
2.478,0.14
2.48,0.13
2.482,0.145
2.484,0.135
2.486,0.175
2.488,0.155
2.49,0.235
2.492,0.27
2.494,0.235
2.496,0.2
2.498,0.195
2.5,0.14
2.502,0.18
2.504,0.155
2.506,0.2
2.508,0.23
2.51,0.255
2.512,0.225
2.514,0.23
2.516,0.18
2.518,0.135
2.52,0.13
2.522,0.18
2.524,0.14
2.526,0.16
2.528,0.215
2.53,0.28
2.532,0.24
2.534,0.23
2.536,0.225
2.538,0.2
2.54,0.15
2.542,0.135
2.544,0.145
2.546,0.19
2.548,0.22
2.55,0.265
2.552,0.27
2.554,0.26
2.556,0.19
2.558,0.115
2.56,0.115
2.562,0.17
2.564,0.16
2.566,0.205
2.568,0.215
2.57,0.23
2.572,0.195
2.574,0.225
2.576,0.2
2.578,0.185
2.58,0.15
2.582,0.14
2.584,0.155
2.586,0.215
2.588,0.22
2.59,0.205
2.592,0.19
2.594,0.15
2.596,0.2
2.598,0.18
2.6,0.17
2.602,0.215
2.604,0.195
2.606,0.21
2.608,0.225
2.61,0.255
2.612,0.215
2.614,0.19
2.616,0.205
2.618,0.185
2.62,0.12
2.622,0.115
2.624,0.175
2.626,0.21
2.628,0.22
2.63,0.225
2.632,0.245
2.634,0.225
2.636,0.235
2.638,0.175
2.64,0.14
2.642,0.135
2.644,0.18
2.646,0.18
2.648,0.225
2.65,0.275
2.652,0.225
2.654,0.175
2.656,0.18
2.658,0.155
2.66,0.215
2.662,0.2
2.664,0.18
2.666,0.205
2.668,0.24
2.67,0.255
2.672,0.28
2.674,0.245
2.676,0.19
2.678,0.185
2.68,0.195
2.682,0.165
2.684,0.205
2.686,0.23
2.688,0.26
2.69,0.275
2.692,0.25
2.694,0.225
2.696,0.205
2.698,0.205
2.7,0.2
2.702,0.185
2.704,0.22
2.706,0.22
2.708,0.24
2.71,0.32
2.712,0.335
2.714,0.265
2.716,0.285
2.718,0.24
2.72,0.26
2.722,0.26
2.724,0.29
2.726,0.275
2.728,0.31
2.73,0.305
2.732,0.32
2.734,0.245
2.736,0.195
2.738,0.145
2.74,0.16
2.742,0.195
2.744,0.21
2.746,0.19
2.748,0.225
2.75,0.255
2.752,0.245
2.754,0.22
2.756,0.195
2.758,0.185
2.76,0.21
2.762,0.175
2.764,0.21
2.766,0.225
2.768,0.225
2.77,0.215
2.772,0.18
2.774,0.175
2.776,0.18
2.778,0.155
2.78,0.165
2.782,0.165
2.784,0.185
2.786,0.195
2.788,0.23
2.79,0.19
2.792,0.255
2.794,0.19
2.796,0.145
2.798,0.13
2.8,0.16
2.802,0.2
2.804,0.23
2.806,0.21
2.808,0.235
2.81,0.22
2.812,0.2
2.814,0.175
2.816,0.215
2.818,0.185
2.82,0.145
2.822,0.125
2.824,0.195
2.826,0.235
2.828,0.27
2.83,0.295
2.832,0.31
2.834,0.305
2.836,0.29
2.838,0.265
2.84,0.275
2.842,0.255
2.844,0.285
2.846,0.28
2.848,0.245
2.85,0.245
2.852,0.285
2.854,0.31
2.856,0.33
2.858,0.38
2.86,0.38
2.862,0.355
2.864,0.33
2.866,0.34
2.868,0.295
2.87,0.22
2.872,0.18
2.874,0.14
2.876,0.145
2.878,0.06
2.88,0.005
2.882,0.025
2.884,0.035
2.886,0.035
2.888,0.1
2.89,0.185
2.892,0.195
2.894,0.22
2.896,0.185
2.898,0.125
2.9,0.12
2.902,0.215
2.904,0.215
2.906,0.265
2.908,0.26
2.91,0.255
2.912,0.245
2.914,0.195
2.916,0.19
2.918,0.17
2.92,0.16
2.922,0.215
2.924,0.25
2.926,0.25
2.928,0.26
2.93,0.225
2.932,0.195
2.934,0.23
2.936,0.23
2.938,0.18
2.94,0.175
2.942,0.185
2.944,0.21
2.946,0.23
2.948,0.245
2.95,0.26
2.952,0.27
2.954,0.245
2.956,0.19
2.958,0.16
2.96,0.165
2.962,0.19
2.964,0.23
2.966,0.285
2.968,0.245
2.97,0.255
2.972,0.25
2.974,0.215
2.976,0.17
2.978,0.18
2.98,0.18
2.982,0.18
2.984,0.18
2.986,0.24
2.988,0.27
2.99,0.295
2.992,0.28
2.994,0.275
2.996,0.195
2.998,0.19
3,0.21
3.002,0.27
3.004,0.24
3.006,0.24
3.008,0.265
3.01,0.305
3.012,0.275
3.014,0.25
3.016,0.275
3.018,0.22
3.02,0.255
3.022,0.275
3.024,0.295
3.026,0.32
3.028,0.315
3.03,0.315
3.032,0.315
3.034,0.29
3.036,0.235
3.038,0.285
3.04,0.28
3.042,0.285
3.044,0.295
3.046,0.35
3.048,0.37
3.05,0.38
3.052,0.355
3.054,0.345
3.056,0.295
3.058,0.305
3.06,0.335
3.062,0.335
3.064,0.39
3.066,0.485
3.068,0.48
3.07,0.42
3.072,0.385
3.074,0.39
3.076,0.35
3.078,0.385
3.08,0.435
3.082,0.425
3.084,0.43
3.086,0.48
3.088,0.485
3.09,0.445
3.092,0.435
3.094,0.44
3.096,0.395
3.098,0.41
3.1,0.42
3.102,0.405
3.104,0.435
3.106,0.48
3.108,0.43
3.11,0.395
3.112,0.37
3.114,0.37
3.116,0.365
3.118,0.41
3.12,0.42
3.122,0.37
3.124,0.345
3.126,0.38
3.128,0.365
3.13,0.35
3.132,0.315
3.134,0.3
3.136,0.255
3.138,0.245
3.14,0.295
3.142,0.285
3.144,0.265
3.146,0.275
3.148,0.3
3.15,0.24
3.152,0.22
3.154,0.245
3.156,0.225
3.158,0.21
3.16,0.225
3.162,0.23
3.164,0.22
3.166,0.235
3.168,0.24
3.17,0.2
3.172,0.215
3.174,0.2
3.176,0.205
3.178,0.195
3.18,0.16
3.182,0.185
3.184,0.26
3.186,0.275
3.188,0.265
3.19,0.215
3.192,0.2
3.194,0.205
3.196,0.155
3.198,0.17
3.2,0.195
3.202,0.22
3.204,0.265
3.206,0.27
3.208,0.255
3.21,0.215
3.212,0.19
3.214,0.15
3.216,0.17
3.218,0.195
3.22,0.235
3.222,0.215
3.224,0.265
3.226,0.24
3.228,0.22
3.23,0.205
3.232,0.205
3.234,0.185
3.236,0.16
3.238,0.165
3.24,0.205
3.242,0.22
3.244,0.23
3.246,0.28
3.248,0.275
3.25,0.225
3.252,0.24
3.254,0.185
3.256,0.175
3.258,0.165
3.26,0.185
3.262,0.235
3.264,0.265
3.266,0.27
3.268,0.255
3.27,0.275
3.272,0.23
3.274,0.17
3.276,0.195
3.278,0.215
3.28,0.24
3.282,0.26
3.284,0.285
3.286,0.26
3.288,0.195
3.29,0.22
3.292,0.24
3.294,0.22
3.296,0.2
3.298,0.205
3.3,0.215
3.302,0.26
3.304,0.275
3.306,0.265
3.308,0.24
3.31,0.235
3.312,0.215
3.314,0.19
3.316,0.185
3.318,0.18
3.32,0.225
3.322,0.23
3.324,0.285
3.326,0.28
3.328,0.305
3.33,0.32
3.332,0.2
3.334,0.14
3.336,0.14
3.338,0.165
3.34,0.185
3.342,0.255
3.344,0.27
3.346,0.255
3.348,0.275
3.35,0.27
3.352,0.22
3.354,0.18
3.356,0.215
3.358,0.175
3.36,0.2
3.362,0.23
3.364,0.28
3.366,0.275
3.368,0.285
3.37,0.27
3.372,0.235
3.374,0.195
3.376,0.21
3.378,0.165
3.38,0.2
3.382,0.225
3.384,0.255
3.386,0.275
3.388,0.25
3.39,0.225
3.392,0.22
3.394,0.22
3.396,0.205
3.398,0.21
3.4,0.23
3.402,0.195
3.404,0.275
3.406,0.27
3.408,0.28
3.41,0.24
3.412,0.2
3.414,0.18
3.416,0.175
3.418,0.24
3.42,0.27
3.422,0.28
3.424,0.31
3.426,0.275
3.428,0.265
3.43,0.245
3.432,0.25
3.434,0.215
3.436,0.23
3.438,0.24
3.44,0.26
3.442,0.29
3.444,0.315
3.446,0.295
3.448,0.3
3.45,0.26
3.452,0.26
3.454,0.285
3.456,0.29
3.458,0.255
3.46,0.29
3.462,0.34
3.464,0.36
3.466,0.34
3.468,0.35
3.47,0.335
3.472,0.29
3.474,0.245
3.476,0.225
3.478,0.28
3.48,0.27
3.482,0.285
3.484,0.31
3.486,0.26
3.488,0.23
3.49,0.24
3.492,0.25
3.494,0.205
3.496,0.205
3.498,0.22
3.5,0.215
3.502,0.245
3.504,0.245
3.506,0.24
3.508,0.235
3.51,0.235
3.512,0.165
3.514,0.14
3.516,0.17
3.518,0.215
3.52,0.245
3.522,0.255
3.524,0.28
3.526,0.265
3.528,0.21
3.53,0.215
3.532,0.185
3.534,0.185
3.536,0.205
3.538,0.2
3.54,0.21
3.542,0.25
3.544,0.24
3.546,0.245
3.548,0.21
3.55,0.21
3.552,0.2
3.554,0.195
3.556,0.195
3.558,0.225
3.56,0.245
3.562,0.245
3.564,0.285
3.566,0.27
3.568,0.235
3.57,0.19
3.572,0.2
3.574,0.215
3.576,0.26
3.578,0.28
3.58,0.26
3.582,0.345
3.584,0.335
3.586,0.375
3.588,0.37
3.59,0.32
3.592,0.22
3.594,0.205
3.596,0.205
3.598,0.245
3.6,0.325
3.602,0.41
3.604,0.47
3.606,0.535
3.608,0.47
3.61,0.39
3.612,0.3
3.614,0.28
3.616,0.25
3.618,0.23
3.62,0.21
3.622,0.205
3.624,0.145
3.626,0.085
3.628,0.045
3.63,0.025
3.632,0.02
3.634,0.04
3.636,0.09
3.638,0.18
3.64,0.215
3.642,0.25
3.644,0.25
3.646,0.24
3.648,0.21
3.65,0.195
3.652,0.175
3.654,0.2
3.656,0.205
3.658,0.215
3.66,0.205
3.662,0.25
3.664,0.27
3.666,0.275
3.668,0.26
3.67,0.245
3.672,0.19
3.674,0.225
3.676,0.22
3.678,0.215
3.68,0.27
3.682,0.285
3.684,0.285
3.686,0.27
3.688,0.25
3.69,0.21
3.692,0.175
3.694,0.205
3.696,0.255
3.698,0.27
3.7,0.275
3.702,0.285
3.704,0.285
3.706,0.265
3.708,0.27
3.71,0.26
3.712,0.21
3.714,0.2
3.716,0.24
3.718,0.26
3.72,0.28
3.722,0.31
3.724,0.27
3.726,0.26
3.728,0.255
3.73,0.265
3.732,0.245
3.734,0.225
3.736,0.215
3.738,0.295
3.74,0.285
3.742,0.29
3.744,0.335
3.746,0.33
3.748,0.27
3.75,0.245
3.752,0.25
3.754,0.245
3.756,0.26
3.758,0.32
3.76,0.31
3.762,0.3
3.764,0.345
3.766,0.3
3.768,0.275
3.77,0.28
3.772,0.27
3.774,0.27
3.776,0.31
3.778,0.305
3.78,0.325
3.782,0.355
3.784,0.335
3.786,0.335
3.788,0.355
3.79,0.33
3.792,0.31
3.794,0.3
3.796,0.34
3.798,0.375
3.8,0.395
3.802,0.395
3.804,0.445
3.806,0.45
3.808,0.45
3.81,0.355
3.812,0.34
3.814,0.37
3.816,0.43
3.818,0.42
3.82,0.465
3.822,0.515
3.824,0.485
3.826,0.46
3.828,0.45
3.83,0.43
3.832,0.435
3.834,0.435
3.836,0.415
3.838,0.43
3.84,0.47
3.842,0.475
3.844,0.46
3.846,0.425
3.848,0.47
3.85,0.43
3.852,0.37
3.854,0.345
3.856,0.43
3.858,0.455
3.86,0.46
3.862,0.465
3.864,0.475
3.866,0.415
3.868,0.38
3.87,0.32
3.872,0.345
3.874,0.34
3.876,0.325
3.878,0.35
3.88,0.35
3.882,0.365
3.884,0.375
3.886,0.315
3.888,0.285
3.89,0.23
3.892,0.265
3.894,0.235
3.896,0.23
3.898,0.275
3.9,0.315
3.902,0.295
3.904,0.285
3.906,0.255
3.908,0.26
3.91,0.225
3.912,0.22
3.914,0.21
3.916,0.245
3.918,0.285
3.92,0.305
3.922,0.275
3.924,0.265
3.926,0.24
3.928,0.23
3.93,0.18
3.932,0.21
3.934,0.195
3.936,0.24
3.938,0.255
3.94,0.275
3.942,0.285
3.944,0.27
3.946,0.205
3.948,0.18
3.95,0.165
3.952,0.195
3.954,0.155
3.956,0.175
3.958,0.235
3.96,0.265
3.962,0.27
3.964,0.27
3.966,0.245
3.968,0.23
3.97,0.225
3.972,0.175
3.974,0.15
3.976,0.15
3.978,0.185
3.98,0.27
3.982,0.285
3.984,0.295
3.986,0.24
3.988,0.175
3.99,0.16
3.992,0.185
3.994,0.19
3.996,0.22
3.998,0.245
4,0.275
4.002,0.29
4.004,0.235
4.006,0.2
4.008,0.2
4.01,0.195
4.012,0.155
4.014,0.155
4.016,0.21
4.018,0.26
4.02,0.285
4.022,0.32
4.024,0.315
4.026,0.265
4.028,0.21
4.03,0.21
4.032,0.23
4.034,0.26
4.036,0.23
4.038,0.2
4.04,0.29
4.042,0.27
4.044,0.215
4.046,0.2
4.048,0.175
4.05,0.22
4.052,0.255
4.054,0.26
4.056,0.27
4.058,0.31
4.06,0.31
4.062,0.3
4.064,0.26
4.066,0.265
4.068,0.235
4.07,0.21
4.072,0.18
4.074,0.205
4.076,0.2
4.078,0.27
4.08,0.27
4.082,0.25
4.084,0.255
4.086,0.265
4.088,0.18
4.09,0.14
4.092,0.17
4.094,0.215
4.096,0.21
4.098,0.27
4.1,0.3
4.102,0.305
4.104,0.27
4.106,0.245
4.108,0.185
4.11,0.2
4.112,0.205
4.114,0.215
4.116,0.235
4.118,0.3
4.12,0.32
4.122,0.3
4.124,0.285
4.126,0.24
4.128,0.15
4.13,0.17
4.132,0.22
4.134,0.295
4.136,0.29
4.138,0.325
4.14,0.285
4.142,0.3
4.144,0.29
4.146,0.255
4.148,0.26
4.15,0.29
4.152,0.275
4.154,0.265
4.156,0.29
4.158,0.325
4.16,0.305
4.162,0.31
4.164,0.305
4.166,0.32
4.168,0.28
4.17,0.28
4.172,0.265
4.174,0.26
4.176,0.265
4.178,0.265
4.18,0.245
4.182,0.255
4.184,0.26
4.186,0.255
4.188,0.2
4.19,0.185
4.192,0.19
4.194,0.195
4.196,0.25
4.198,0.28
4.2,0.275
4.202,0.3
4.204,0.23
4.206,0.185
4.208,0.195
4.21,0.22
4.212,0.16
4.214,0.165
4.216,0.215
4.218,0.25
4.22,0.235
4.222,0.23
4.224,0.23
4.226,0.205
4.228,0.165
4.23,0.185
4.232,0.155
4.234,0.195
4.236,0.215
4.238,0.285
4.24,0.255
4.242,0.26
4.244,0.23
4.246,0.185
4.248,0.135
4.25,0.185
4.252,0.205
4.254,0.195
4.256,0.2
4.258,0.22
4.26,0.235
4.262,0.265
4.264,0.23
4.266,0.215
4.268,0.19
4.27,0.185
4.272,0.21
4.274,0.19
4.276,0.235
4.278,0.3
4.28,0.275
4.282,0.25
4.284,0.275
4.286,0.285
4.288,0.275
4.29,0.285
4.292,0.27
4.294,0.255
4.296,0.27
4.298,0.215
4.3,0.275
4.302,0.3
4.304,0.325
4.306,0.335
4.308,0.34
4.31,0.385
4.312,0.395
4.314,0.375
4.316,0.36
4.318,0.355
4.32,0.305
4.322,0.27
4.324,0.225
4.326,0.14
4.328,0.05
4.33,-0.005
4.332,-0.02
4.334,0.005
4.336,0.1
4.338,0.13
4.34,0.13
4.342,0.185
4.344,0.205
4.346,0.2
4.348,0.22
4.35,0.195
4.352,0.22
4.354,0.235
4.356,0.265
4.358,0.275
4.36,0.255
4.362,0.26
4.364,0.24
4.366,0.195
4.368,0.175
4.37,0.205
4.372,0.2
4.374,0.195
4.376,0.26
4.378,0.28
4.38,0.25
4.382,0.265
4.384,0.24
4.386,0.165
4.388,0.13
4.39,0.165
4.392,0.205
4.394,0.22
4.396,0.275
4.398,0.275
4.4,0.29
4.402,0.305
4.404,0.28
4.406,0.215
4.408,0.185
4.41,0.18
4.412,0.23
4.414,0.26
4.416,0.295
4.418,0.27
4.42,0.27
4.422,0.255
4.424,0.24
4.426,0.225
4.428,0.21
4.43,0.195
4.432,0.22
4.434,0.265
4.436,0.285
4.438,0.245
4.44,0.3
4.442,0.285
4.444,0.275
4.446,0.215
4.448,0.23
4.45,0.22
4.452,0.265
4.454,0.275
4.456,0.335
4.458,0.305
4.46,0.305
4.462,0.275
4.464,0.275
4.466,0.235
4.468,0.285
4.47,0.305
4.472,0.305
4.474,0.31
4.476,0.365
4.478,0.385
4.48,0.335
4.482,0.325
4.484,0.29
4.486,0.28
4.488,0.31
4.49,0.3
4.492,0.32
4.494,0.365
4.496,0.405
4.498,0.44
4.5,0.445
4.502,0.395
4.504,0.39
4.506,0.35
4.508,0.365
4.51,0.37
4.512,0.375
4.514,0.43
4.516,0.49
4.518,0.49
4.52,0.5
4.522,0.42
4.524,0.42
4.526,0.45
4.528,0.455
4.53,0.435
4.532,0.43
4.534,0.47
4.536,0.535
4.538,0.495
4.54,0.495
4.542,0.485
4.544,0.45
4.546,0.395
4.548,0.44
4.55,0.46
4.552,0.47
4.554,0.5
4.556,0.54
4.558,0.52
4.56,0.495
4.562,0.45
4.564,0.38
4.566,0.34
4.568,0.405
4.57,0.42
4.572,0.4
4.574,0.405
4.576,0.42
4.578,0.38
4.58,0.4
4.582,0.37
4.584,0.3
4.586,0.275
4.588,0.295
4.59,0.29
4.592,0.285
4.594,0.32
4.596,0.295
4.598,0.32
4.6,0.275
4.602,0.24
4.604,0.24
4.606,0.265
4.608,0.22
4.61,0.24
4.612,0.245
4.614,0.285
4.616,0.29
4.618,0.29
4.62,0.285
4.622,0.26
4.624,0.215
4.626,0.22
4.628,0.21
4.63,0.25
4.632,0.205
4.634,0.23
4.636,0.26
4.638,0.27
4.64,0.26
4.642,0.25
4.644,0.255
4.646,0.215
4.648,0.19
4.65,0.24
4.652,0.225
4.654,0.26
4.656,0.22
4.658,0.275
4.66,0.275
4.662,0.225
4.664,0.19
4.666,0.2
4.668,0.185
4.67,0.255
4.672,0.225
4.674,0.265
4.676,0.3
4.678,0.29
4.68,0.24
4.682,0.235
4.684,0.195
4.686,0.225
4.688,0.23
4.69,0.235
4.692,0.23
4.694,0.27
4.696,0.24
4.698,0.26
4.7,0.275
4.702,0.29
4.704,0.23
4.706,0.21
4.708,0.205
4.71,0.24
4.712,0.27
4.714,0.25
4.716,0.25
4.718,0.27
4.72,0.32
4.722,0.285
4.724,0.2
4.726,0.22
4.728,0.265
4.73,0.265
4.732,0.255
4.734,0.265
4.736,0.27
4.738,0.295
4.74,0.275
4.742,0.23
4.744,0.2
4.746,0.195
4.748,0.235
4.75,0.275
4.752,0.275
4.754,0.29
4.756,0.31
4.758,0.285
4.76,0.26
4.762,0.205
4.764,0.16
4.766,0.205
4.768,0.215
4.77,0.27
4.772,0.26
4.774,0.32
4.776,0.3
4.778,0.25
4.78,0.22
4.782,0.2
4.784,0.185
4.786,0.22
4.788,0.25
4.79,0.255
4.792,0.23
4.794,0.255
4.796,0.305
4.798,0.325
4.8,0.26
4.802,0.21
4.804,0.2
4.806,0.165
4.808,0.19
4.81,0.23
4.812,0.27
4.814,0.295
4.816,0.265
4.818,0.25
4.82,0.245
4.822,0.23
4.824,0.205
4.826,0.205
4.828,0.19
4.83,0.22
4.832,0.27
4.834,0.335
4.836,0.28
4.838,0.265
4.84,0.255
4.842,0.225
4.844,0.235
4.846,0.26
4.848,0.23
4.85,0.245
4.852,0.275
4.854,0.265
4.856,0.3
4.858,0.28
4.86,0.26
4.862,0.265
4.864,0.23
4.866,0.27
4.868,0.295
4.87,0.305
4.872,0.305
4.874,0.335
4.876,0.315
4.878,0.26
4.88,0.305
4.882,0.29
4.884,0.25
4.886,0.25
4.888,0.28
4.89,0.295
4.892,0.34
4.894,0.385
4.896,0.345
4.898,0.335
4.9,0.325
4.902,0.28
4.904,0.25
4.906,0.19
4.908,0.2
4.91,0.23
4.912,0.245
4.914,0.29
4.916,0.29
4.918,0.26
4.92,0.225
4.922,0.18
4.924,0.15
4.926,0.165
4.928,0.23
4.93,0.235
4.932,0.24
4.934,0.24
4.936,0.24
4.938,0.225
4.94,0.21
4.942,0.185
4.944,0.115
4.946,0.145
4.948,0.195
4.95,0.19
4.952,0.265
4.954,0.23
4.956,0.2
4.958,0.21
4.96,0.26
4.962,0.255
4.964,0.155
4.966,0.165
4.968,0.175
4.97,0.185
4.972,0.25
4.974,0.26
4.976,0.255
4.978,0.22
4.98,0.245
4.982,0.185
4.984,0.185
4.986,0.175
4.988,0.205
4.99,0.19
4.992,0.24
4.994,0.23
4.996,0.29
4.998,0.265
5,0.235
5.002,0.19
5.004,0.2
5.006,0.225
5.008,0.26
5.01,0.31
5.012,0.39
5.014,0.38
5.016,0.36
5.018,0.31
5.02,0.27
5.022,0.2
5.024,0.205
5.026,0.225
5.028,0.27
5.03,0.35
5.032,0.46
5.034,0.46
5.036,0.46
5.038,0.42
5.04,0.34
5.042,0.26
5.044,0.215
5.046,0.175
5.048,0.215
5.05,0.19
5.052,0.14
5.054,0.09
5.056,0.07
5.058,0.05
5.06,0.04
5.062,0.03
5.064,0.105
5.066,0.09
5.068,0.18
5.07,0.23
5.072,0.265
5.074,0.21
5.076,0.24
5.078,0.205
5.08,0.17
5.082,0.195
5.084,0.21
5.086,0.22
5.088,0.185
5.09,0.24
5.092,0.26
5.094,0.26
5.096,0.265
5.098,0.255
5.1,0.2
5.102,0.13
5.104,0.15
5.106,0.175
5.108,0.195
5.11,0.225
5.112,0.25
5.114,0.27
5.116,0.265
5.118,0.245
5.12,0.21
5.122,0.19
5.124,0.205
5.126,0.2
5.128,0.22
5.13,0.225
5.132,0.275
5.134,0.285
5.136,0.27
5.138,0.225
5.14,0.185
5.142,0.165
5.144,0.165
5.146,0.16
5.148,0.23
5.15,0.31
5.152,0.31
5.154,0.27
5.156,0.275
5.158,0.27
5.16,0.24
5.162,0.215
5.164,0.24
5.166,0.265
5.168,0.235
5.17,0.27
5.172,0.31
5.174,0.33
5.176,0.285
5.178,0.28
5.18,0.245
5.182,0.205
5.184,0.18
5.186,0.215
5.188,0.225
5.19,0.275
5.192,0.325
5.194,0.33
5.196,0.3
5.198,0.285
5.2,0.275
5.202,0.315
5.204,0.255
5.206,0.265
5.208,0.305
5.21,0.34
5.212,0.315
5.214,0.31
5.216,0.32
5.218,0.295
5.22,0.295
5.222,0.305
5.224,0.32
5.226,0.36
5.228,0.35
5.23,0.355
5.232,0.4
5.234,0.39
5.236,0.42
5.238,0.45
5.24,0.39
5.242,0.36
5.244,0.35
5.246,0.41
5.248,0.385
5.25,0.44
5.252,0.485
5.254,0.47
5.256,0.425
5.258,0.425
5.26,0.39
5.262,0.41
5.264,0.375
5.266,0.445
5.268,0.45
5.27,0.49
5.272,0.485
5.274,0.48
5.276,0.47
5.278,0.41
5.28,0.365
5.282,0.375
5.284,0.385
5.286,0.4
5.288,0.415
5.29,0.44
5.292,0.42
5.294,0.4
5.296,0.415
5.298,0.345
5.3,0.315
5.302,0.315
5.304,0.27
5.306,0.305
5.308,0.35
5.31,0.365
5.312,0.35
5.314,0.335
5.316,0.31
5.318,0.255
5.32,0.2
5.322,0.19
5.324,0.195
5.326,0.24
5.328,0.255
5.33,0.27
5.332,0.25
5.334,0.23
5.336,0.23
5.338,0.215
5.34,0.17
5.342,0.175
5.344,0.145
5.346,0.195
5.348,0.2
5.35,0.255
5.352,0.255
5.354,0.245
5.356,0.19
5.358,0.21
5.36,0.13
5.362,0.16
5.364,0.17
5.366,0.18
5.368,0.185
5.37,0.24
5.372,0.25
5.374,0.25
5.376,0.22
5.378,0.215
5.38,0.16
5.382,0.14
5.384,0.175
5.386,0.225
5.388,0.215
5.39,0.195
5.392,0.225
5.394,0.235
5.396,0.21
5.398,0.17
5.4,0.16
5.402,0.16
5.404,0.17
5.406,0.16
5.408,0.19
5.41,0.175
5.412,0.24
5.414,0.255
5.416,0.22
5.418,0.155
5.42,0.14
5.422,0.19
5.424,0.175
5.426,0.16
5.428,0.15
5.43,0.22
5.432,0.25
5.434,0.245
5.436,0.245
5.438,0.185
5.44,0.17
5.442,0.165
5.444,0.19
5.446,0.18
5.448,0.205
5.45,0.255
5.452,0.235
5.454,0.23
5.456,0.215
5.458,0.205
5.46,0.21
5.462,0.18
5.464,0.175
5.466,0.22
5.468,0.25
5.47,0.25
5.472,0.255
5.474,0.22
5.476,0.185
5.478,0.18
5.48,0.19
5.482,0.165
5.484,0.195
5.486,0.22
5.488,0.235
5.49,0.215
5.492,0.24
5.494,0.23
5.496,0.205
5.498,0.2
5.5,0.18
5.502,0.115
5.504,0.185
5.506,0.16
5.508,0.2
5.51,0.24
5.512,0.23
5.514,0.185
5.516,0.23
5.518,0.195
5.52,0.12
5.522,0.145
5.524,0.17
5.526,0.135
5.528,0.19
5.53,0.23
5.532,0.25
5.534,0.265
5.536,0.21
5.538,0.155
5.54,0.135
5.542,0.105
5.544,0.135
5.546,0.2
5.548,0.22
5.55,0.245
5.552,0.29
5.554,0.225
5.556,0.195
5.558,0.165
5.56,0.18
5.562,0.16
5.564,0.19
5.566,0.185
5.568,0.23
5.57,0.22
5.572,0.23
5.574,0.16
5.576,0.145
5.578,0.13
5.58,0.155
5.582,0.18
5.584,0.19
5.586,0.23
5.588,0.27
5.59,0.235
5.592,0.25
5.594,0.23
5.596,0.21
5.598,0.165
5.6,0.185
5.602,0.13
5.604,0.16
5.606,0.195
5.608,0.27
5.61,0.26
5.612,0.23
5.614,0.205
5.616,0.19
5.618,0.16
5.62,0.15
5.622,0.19
5.624,0.255
5.626,0.26
5.628,0.24
5.63,0.21
5.632,0.2
5.634,0.225
5.636,0.275
5.638,0.265
5.64,0.28
5.642,0.245
5.644,0.215
5.646,0.285
5.648,0.295
5.65,0.275
5.652,0.285
5.654,0.28
5.656,0.25
5.658,0.165
5.66,0.195
5.662,0.19
5.664,0.245
5.666,0.255
5.668,0.265
5.67,0.275
5.672,0.26
5.674,0.23
5.676,0.17
5.678,0.145
5.68,0.145
5.682,0.15
5.684,0.11
5.686,0.175
5.688,0.245
5.69,0.22
5.692,0.205
5.694,0.195
5.696,0.205
5.698,0.185
5.7,0.165
5.702,0.175
5.704,0.175
5.706,0.17
5.708,0.225
5.71,0.21
5.712,0.2
5.714,0.18
5.716,0.175
5.718,0.145
5.72,0.155
5.722,0.14
5.724,0.15
5.726,0.195
5.728,0.24
5.73,0.255
5.732,0.205
5.734,0.185
5.736,0.105
5.738,0.095
5.74,0.125
5.742,0.155
5.744,0.175
5.746,0.215
5.748,0.225
5.75,0.24
5.752,0.24
5.754,0.205
5.756,0.135
5.758,0.125
5.76,0.105
5.762,0.135
5.764,0.185
5.766,0.22
5.768,0.305
5.77,0.3
5.772,0.28
5.774,0.285
5.776,0.265
5.778,0.25
5.78,0.25
5.782,0.26
5.784,0.27
5.786,0.255
5.788,0.285
5.79,0.295
5.792,0.255
5.794,0.29
5.796,0.355
5.798,0.37
5.8,0.315
5.802,0.325
5.804,0.315
5.806,0.305
5.808,0.265
5.81,0.23
5.812,0.205
5.814,0.165
5.816,0.06
5.818,0.01
5.82,-0.005
5.822,0.01
5.824,-0.01
5.826,0.065
5.828,0.12
5.83,0.155
5.832,0.145
5.834,0.145
5.836,0.14
5.838,0.18
5.84,0.13
5.842,0.195
5.844,0.175
5.846,0.22
5.848,0.225
5.85,0.22
5.852,0.23
5.854,0.2
5.856,0.14
5.858,0.16
5.86,0.14
5.862,0.17
5.864,0.25
5.866,0.25
5.868,0.18
5.87,0.24
5.872,0.21
5.874,0.175
5.876,0.16
5.878,0.185
5.88,0.18
5.882,0.175
5.884,0.19
5.886,0.255
5.888,0.24
5.89,0.235
5.892,0.255
5.894,0.205
5.896,0.135
5.898,0.17
5.9,0.17
5.902,0.185
5.904,0.18
5.906,0.24
5.908,0.25
5.91,0.245
5.912,0.25
5.914,0.2
5.916,0.125
5.918,0.14
5.92,0.21
5.922,0.205
5.924,0.205
5.926,0.235
5.928,0.285
5.93,0.27
5.932,0.25
5.934,0.2
5.936,0.2
5.938,0.2
5.94,0.145
5.942,0.17
5.944,0.205
5.946,0.24
5.948,0.255
5.95,0.26
5.952,0.26
5.954,0.22
5.956,0.19
5.958,0.195
5.96,0.2
5.962,0.24
5.964,0.285
5.966,0.3
5.968,0.315
5.97,0.255
5.972,0.26
5.974,0.22
5.976,0.205
5.978,0.245
5.98,0.26
5.982,0.275
5.984,0.28
5.986,0.3
5.988,0.32
5.99,0.33
5.992,0.32
5.994,0.305
5.996,0.3
5.998,0.32
6,0.33
6.002,0.305
6.004,0.395
6.006,0.42
6.008,0.445
6.01,0.355
6.012,0.375
6.014,0.34
6.016,0.36
6.018,0.325
6.02,0.375
6.022,0.405
6.024,0.445
6.026,0.43
6.028,0.455
6.03,0.445
6.032,0.42
6.034,0.365
6.036,0.355
6.038,0.325
6.04,0.37
6.042,0.375
6.044,0.39
6.046,0.43
6.048,0.425
6.05,0.41
6.052,0.4
6.054,0.32
6.056,0.295
6.058,0.28
6.06,0.3
6.062,0.29
6.064,0.305
6.066,0.355
6.068,0.39
6.07,0.305
6.072,0.265
6.074,0.25
6.076,0.25
6.078,0.205
6.08,0.155
6.082,0.19
6.084,0.255
6.086,0.245
6.088,0.26
6.09,0.245
6.092,0.205
6.094,0.155
6.096,0.1
6.098,0.095
6.1,0.205
6.102,0.175
6.104,0.195
6.106,0.25
6.108,0.23
6.11,0.18
6.112,0.155
6.114,0.16
6.116,0.11
6.118,0.11
6.12,0.16
6.122,0.185
6.124,0.19
6.126,0.165
6.128,0.17
6.13,0.145
6.132,0.145
6.134,0.105
6.136,0.1
6.138,0.065
6.14,0.13
6.142,0.165
6.144,0.195
6.146,0.15
6.148,0.21
6.15,0.21
6.152,0.17
6.154,0.125
6.156,0.13
6.158,0.1
6.16,0.095
6.162,0.15
6.164,0.205
6.166,0.2
6.168,0.19
6.17,0.19
6.172,0.15
6.174,0.105
6.176,0.16
6.178,0.14
6.18,0.125
6.182,0.16
6.184,0.2
6.186,0.19
6.188,0.19
6.19,0.165
6.192,0.125
6.194,0.14
6.196,0.13
6.198,0.12
6.2,0.16
6.202,0.2
6.204,0.215
6.206,0.17
6.208,0.145
6.21,0.15
6.212,0.115
6.214,0.125
6.216,0.125
6.218,0.135
6.22,0.13
6.222,0.195
6.224,0.23
6.226,0.235
6.228,0.215
6.23,0.185
6.232,0.16
6.234,0.13
6.236,0.115
6.238,0.125
6.24,0.115
6.242,0.18
6.244,0.2
6.246,0.2
6.248,0.175
6.25,0.18
6.252,0.14
6.254,0.085
6.256,0.155
6.258,0.17
6.26,0.14
6.262,0.17
6.264,0.18
6.266,0.14
6.268,0.125
6.27,0.19
6.272,0.18
6.274,0.115
6.276,0.085
6.278,0.1
6.28,0.115
6.282,0.2
6.284,0.205
6.286,0.2
6.288,0.19
6.29,0.17
6.292,0.125
6.294,0.125
6.296,0.12
6.298,0.13
6.3,0.165
6.302,0.21
6.304,0.205
6.306,0.195
6.308,0.185
6.31,0.15
6.312,0.13
6.314,0.11
6.316,0.095
6.318,0.13
6.32,0.12
6.322,0.23
6.324,0.235
6.326,0.245
6.328,0.16
6.33,0.155
6.332,0.175
6.334,0.16
6.336,0.11
6.338,0.13
6.34,0.14
6.342,0.195
6.344,0.165
6.346,0.215
6.348,0.16
6.35,0.15
6.352,0.09
6.354,0.105
6.356,0.145
6.358,0.15
6.36,0.13
6.362,0.24
6.364,0.22
6.366,0.23
6.368,0.165
6.37,0.165
6.372,0.125
6.374,0.14
6.376,0.13
6.378,0.165
6.38,0.195
6.382,0.215
6.384,0.185
6.386,0.21
6.388,0.145
6.39,0.14
6.392,0.155
6.394,0.175
6.396,0.175
6.398,0.22
6.4,0.225
6.402,0.255
6.404,0.265
6.406,0.3
6.408,0.245
6.41,0.245
6.412,0.19
6.414,0.14
6.416,0.175
6.418,0.175
6.42,0.17
6.422,0.17
6.424,0.19
6.426,0.195
6.428,0.21
6.43,0.175
6.432,0.155
6.434,0.135
6.436,0.1
6.438,0.13
6.44,0.185
6.442,0.2
6.444,0.2
6.446,0.185
6.448,0.16
6.45,0.125
6.452,0.09
6.454,0.105
6.456,0.095
6.458,0.09
6.46,0.14
6.462,0.205
6.464,0.19
6.466,0.18
6.468,0.14
6.47,0.155
6.472,0.14
6.474,0.125
6.476,0.14
6.478,0.145
6.48,0.16
6.482,0.175
6.484,0.145
6.486,0.16
6.488,0.16
6.49,0.1
6.492,0.075
6.494,0.08
6.496,0.11
6.498,0.16
6.5,0.195
6.502,0.2
6.504,0.195
6.506,0.16
6.508,0.145
6.51,0.12
6.512,0.135
6.514,0.08
6.516,0.045
6.518,0.115
6.52,0.16
6.522,0.175
6.524,0.225
6.526,0.21
6.528,0.2
6.53,0.185
6.532,0.195
6.534,0.23
6.536,0.225
6.538,0.235
6.54,0.27
6.542,0.245
6.544,0.17
6.546,0.16
6.548,0.205
6.55,0.185
6.552,0.27
6.554,0.355
6.556,0.365
6.558,0.34
6.56,0.345
6.562,0.315
6.564,0.27
6.566,0.21
6.568,0.155
6.57,0.11
6.572,0.045
6.574,-0.04
6.576,-0.035
6.578,-0.045
6.58,0.04
6.582,0.04
6.584,0.055
6.586,0.11
6.588,0.08
6.59,0.1
6.592,0.105
6.594,0.095
6.596,0.15
6.598,0.17
6.6,0.2
6.602,0.165
6.604,0.19
6.606,0.185
6.608,0.17
6.61,0.14
6.612,0.095
6.614,0.06
6.616,0.105
6.618,0.1
6.62,0.145
6.622,0.19
6.624,0.21
6.626,0.17
6.628,0.165
6.63,0.1
6.632,0.09
6.634,0.125
6.636,0.145
6.638,0.125
6.64,0.19
6.642,0.195
6.644,0.24
6.646,0.215
6.648,0.16
6.65,0.145
6.652,0.125
6.654,0.13
6.656,0.165
6.658,0.185
6.66,0.21
6.662,0.22
6.664,0.245
6.666,0.16
6.668,0.15
6.67,0.13
6.672,0.135
6.674,0.125
6.676,0.12
6.678,0.135
6.68,0.21
6.682,0.22
6.684,0.22
6.686,0.21
6.688,0.2
6.69,0.165
6.692,0.16
6.694,0.14
6.696,0.16
6.698,0.21
6.7,0.235
6.702,0.21
6.704,0.205
6.706,0.19
6.708,0.175
6.71,0.155
6.712,0.175
6.714,0.185
6.716,0.225
6.718,0.24
6.72,0.245
6.722,0.21
6.724,0.245
6.726,0.23
6.728,0.245
6.73,0.225
6.732,0.2
6.734,0.2
6.736,0.2
6.738,0.255
6.74,0.285
6.742,0.3
6.744,0.335
6.746,0.275
6.748,0.265
6.75,0.235
6.752,0.235
6.754,0.27
6.756,0.29
6.758,0.31
6.76,0.355
6.762,0.365
6.764,0.365
6.766,0.38
6.768,0.305
6.77,0.29
6.772,0.315
6.774,0.315
6.776,0.375
6.778,0.41
6.78,0.425
6.782,0.4
6.784,0.365
6.786,0.39
6.788,0.34
6.79,0.32
6.792,0.315
6.794,0.32
6.796,0.335
6.798,0.34
6.8,0.375
6.802,0.355
6.804,0.36
6.806,0.375
6.808,0.325
6.81,0.305
6.812,0.325
6.814,0.3
6.816,0.28
6.818,0.315
6.82,0.35
6.822,0.32
6.824,0.29
6.826,0.275
6.828,0.18
6.83,0.185
6.832,0.195
6.834,0.23
6.836,0.19
6.838,0.22
6.84,0.24
6.842,0.275
6.844,0.255
6.846,0.19
6.848,0.12
6.85,0.09
6.852,0.13
6.854,0.15
6.856,0.17
6.858,0.16
6.86,0.175
6.862,0.195
6.864,0.165
6.866,0.155
6.868,0.16
6.87,0.12
6.872,0.085
6.874,0.09
6.876,0.11
6.878,0.18
6.88,0.24
6.882,0.215
6.884,0.175
6.886,0.125
6.888,0.075
6.89,0.145
6.892,0.09
6.894,0.13
6.896,0.095
6.898,0.165
6.9,0.165
6.902,0.145
6.904,0.12
6.906,0.15
6.908,0.085
6.91,0.07
6.912,0.09
6.914,0.11
6.916,0.13
6.918,0.15
6.92,0.155
6.922,0.135
6.924,0.175
6.926,0.155
6.928,0.06
6.93,0.05
6.932,0.05
6.934,0.125
6.936,0.115
6.938,0.185
6.94,0.175
6.942,0.19
6.944,0.145
6.946,0.145
6.948,0.11
6.95,0.12
6.952,0.11
6.954,0.115
6.956,0.155
6.958,0.175
6.96,0.15
6.962,0.13
6.964,0.19
6.966,0.16
6.968,0.125
6.97,0.12
6.972,0.09
6.974,0.095
6.976,0.12
6.978,0.19
6.98,0.23
6.982,0.2
6.984,0.19
6.986,0.15
6.988,0.12
6.99,0.105
6.992,0.07
6.994,0.095
6.996,0.095
6.998,0.19
7,0.22
7.002,0.19
7.004,0.16
7.006,0.14
7.008,0.115
7.01,0.105
7.012,0.11
7.014,0.165
7.016,0.215
7.018,0.22
7.02,0.18
7.022,0.19
7.024,0.19
7.026,0.14
7.028,0.115
7.03,0.145
7.032,0.105
7.034,0.105
7.036,0.215
7.038,0.175
7.04,0.17
7.042,0.18
7.044,0.155
7.046,0.13
7.048,0.085
7.05,0.1
7.052,0.115
7.054,0.14
7.056,0.195
7.058,0.26
7.06,0.185
7.062,0.17
7.064,0.11
7.066,0.095
7.068,0.1
7.07,0.125
7.072,0.105
7.074,0.115
7.076,0.16
7.078,0.18
7.08,0.17
7.082,0.175
7.084,0.16
7.086,0.09
7.088,0.085
7.09,0.09
7.092,0.075
7.094,0.11
7.096,0.145
7.098,0.165
7.1,0.21
7.102,0.195
7.104,0.15
7.106,0.11
7.108,0.11
7.11,0.1
7.112,0.115
7.114,0.16
7.116,0.195
7.118,0.205
7.12,0.22
7.122,0.205
7.124,0.22
7.126,0.155
7.128,0.15
7.13,0.13
7.132,0.14
7.134,0.15
7.136,0.18
7.138,0.24
7.14,0.275
7.142,0.225
7.144,0.24
7.146,0.205
7.148,0.17
7.15,0.13
7.152,0.155
7.154,0.2
7.156,0.2
7.158,0.165
7.16,0.17
7.162,0.195
7.164,0.2
7.166,0.11
7.168,0.08
7.17,0.085
7.172,0.135
7.174,0.135
7.176,0.125
7.178,0.13
7.18,0.205
7.182,0.185
7.184,0.15
7.186,0.07
7.188,0.12
7.19,0.095
7.192,0.105
7.194,0.08
7.196,0.12
7.198,0.15
7.2,0.225
7.202,0.185
7.204,0.18
7.206,0.1
7.208,0.105
7.21,0.055
7.212,0.075
7.214,0.105
7.216,0.165
7.218,0.17
7.22,0.195
7.222,0.175
7.224,0.145
7.226,0.06
7.228,0.095
7.23,0.135
7.232,0.11
7.234,0.1
7.236,0.14
7.238,0.145
7.24,0.165
7.242,0.145
7.244,0.105
7.246,0.08
7.248,0.095
7.25,0.06
7.252,0.07
7.254,0.105
7.256,0.19
7.258,0.165
7.26,0.175
7.262,0.195
7.264,0.155
7.266,0.145
7.268,0.21
7.27,0.26
7.272,0.255
7.274,0.19
7.276,0.185
7.278,0.195
7.28,0.145
7.282,0.17
7.284,0.165
7.286,0.18
7.288,0.265
7.29,0.29
7.292,0.35
7.294,0.32
7.296,0.31
7.298,0.27
7.3,0.21
7.302,0.165
7.304,0.065
7.306,0.05
7.308,0.035
7.31,-0.05
7.312,-0.105
7.314,-0.065
7.316,-0.03
7.318,-0.01
7.32,-0.01
7.322,0.02
7.324,0.025
7.326,0.025
7.328,0.09
7.33,0.145
7.332,0.1
7.334,0.14
7.336,0.17
7.338,0.155
7.34,0.12
7.342,0.11
7.344,0.075
7.346,0.115
7.348,0.105
7.35,0.12
7.352,0.12
7.354,0.14
7.356,0.15
7.358,0.11
7.36,0.14
7.362,0.15
7.364,0.155
7.366,0.105
7.368,0.095
7.37,0.095
7.372,0.125
7.374,0.14
7.376,0.185
7.378,0.16
7.38,0.21
7.382,0.215
7.384,0.155
7.386,0.135
7.388,0.125
7.39,0.135
7.392,0.155
7.394,0.175
7.396,0.2
7.398,0.215
7.4,0.165
7.402,0.155
7.404,0.125
7.406,0.12
7.408,0.115
7.41,0.14
7.412,0.165
7.414,0.19
7.416,0.17
7.418,0.18
7.42,0.18
7.422,0.17
7.424,0.115
7.426,0.115
7.428,0.11
7.43,0.085
7.432,0.055
7.434,0.04
7.436,0.035
7.438,0.015
7.44,0.005
7.442,-0.005
7.444,-0.025
7.446,0.005
7.448,0.005
7.45,0.005
7.452,0.01
7.454,0.03
7.456,0.025
7.458,0.035
7.46,0.02
7.462,-0.015
7.464,-0.015
7.466,0
7.468,-0.01
7.47,-0.005
7.472,0.02
7.474,0.035
7.476,0.02
7.478,0.02
7.48,0
7.482,0
7.484,-0.025
7.486,-0.005
7.488,0.01
7.49,0.055
7.492,0.07
7.494,0.1
7.496,0.07
7.498,0.08
7.5,0.09
7.502,0.085
7.504,0.06
7.506,0.035
7.508,0.015
7.51,0.075
7.512,0.1
7.514,0.115
7.516,0.16
7.518,0.18
7.52,0.16
7.522,0.13
7.524,0.075
7.526,0.1
7.528,0.085
7.53,0.07
7.532,0.09
7.534,0.14
7.536,0.125
7.538,0.135
7.54,0.125
7.542,0.09
7.544,0.055
7.546,0.075
7.548,0.06
7.55,0.025
7.552,0.03
7.554,0.08
7.556,0.08
7.558,0.05
7.56,0.04
7.562,-0.005
7.564,-0.045
7.566,-0.035
7.568,-0.04
7.57,-0.06
7.572,-0.055
7.574,-0.07
7.576,-0.055
7.578,-0.005
7.58,0
7.582,-0.08
7.584,-0.14
7.586,-0.135
7.588,-0.115
7.59,-0.08
7.592,-0.065
7.594,-0.07
7.596,-0.06
7.598,-0.03
7.6,-0.055
7.602,-0.135
7.604,-0.145
7.606,-0.11
7.608,-0.115
7.61,-0.12
7.612,-0.08
7.614,-0.06
7.616,-0.04
7.618,-0.085
7.62,-0.15
7.622,-0.145
7.624,-0.135
7.626,-0.14
7.628,-0.095
7.63,-0.1
7.632,-0.12
7.634,-0.095
7.636,-0.095
7.638,-0.1
7.64,-0.11
7.642,-0.175
7.644,-0.18
7.646,-0.19
7.648,-0.14
7.65,-0.14
7.652,-0.16
7.654,-0.135
7.656,-0.09
7.658,-0.08
7.66,-0.065
7.662,-0.11
7.664,-0.135
7.666,-0.175
7.668,-0.175
7.67,-0.175
7.672,-0.1
7.674,-0.04
7.676,-0.035
7.678,-0.065
7.68,-0.09
7.682,-0.165
7.684,-0.15
7.686,-0.15
7.688,-0.145
7.69,-0.15
7.692,-0.11
7.694,-0.055
7.696,-0.045
7.698,-0.065
7.7,-0.07
7.702,-0.12
7.704,-0.145
7.706,-0.16
7.708,-0.115
7.71,-0.1
7.712,-0.085
7.714,-0.055
7.716,-0.05
7.718,-0.05
7.72,-0.065
7.722,-0.13
7.724,-0.175
7.726,-0.175
7.728,-0.13
7.73,-0.135
7.732,-0.025
7.734,-0.045
7.736,-0.045
7.738,-0.08
7.74,-0.09
7.742,-0.135
7.744,-0.105
7.746,-0.115
7.748,-0.095
7.75,-0.105
7.752,-0.065
7.754,-0.09
7.756,-0.07
7.758,-0.085
7.76,-0.075
7.762,-0.1
7.764,-0.105
7.766,-0.13
7.768,-0.115
7.77,-0.115
7.772,-0.085
7.774,-0.055
7.776,-0.03
7.778,-0.075
7.78,-0.115
7.782,-0.115
7.784,-0.115
7.786,-0.155
7.788,-0.105
7.79,-0.11
7.792,-0.14
7.794,-0.11
7.796,-0.045
7.798,-0.02
7.8,-0.07
7.802,-0.13
7.804,-0.155
7.806,-0.17
7.808,-0.105
7.81,-0.07
7.812,-0.045
7.814,-0.065
7.816,-0.08
7.818,-0.095
7.82,-0.12
7.822,-0.145
7.824,-0.095
7.826,-0.07
7.828,-0.11
7.83,-0.085
7.832,-0.025
7.834,-0.035
7.836,-0.01
7.838,-0.045
7.84,-0.11
7.842,-0.135
7.844,-0.15
7.846,-0.095
7.848,-0.095
7.85,-0.075
7.852,-0.035
7.854,-0.03
7.856,-0.01
7.858,-0.035
7.86,-0.085
7.862,-0.115
7.864,-0.095
7.866,-0.085
7.868,-0.055
7.87,-0.03
7.872,0
7.874,-0.005
7.876,0.02
7.878,-0.025
7.88,-0.065
7.882,-0.12
7.884,-0.085
7.886,-0.025
7.888,-0.01
7.89,0.035
7.892,0.01
7.894,-0.015
7.896,0.01
7.898,0
7.9,-0.065
7.902,-0.14
7.904,-0.165
7.906,-0.17
7.908,-0.135
7.91,-0.07
7.912,-0.02
7.914,-0.035
7.916,-0.09
7.918,-0.11
7.92,-0.12
7.922,-0.115
7.924,-0.125
7.926,-0.075
7.928,-0.085
7.93,-0.07
7.932,-0.09
7.934,-0.095
7.936,-0.03
7.938,-0.05
7.94,-0.12
7.942,-0.12
7.944,-0.18
7.946,-0.14
7.948,-0.115
7.95,-0.05
7.952,-0.04
7.954,-0.06
7.956,-0.095
7.958,-0.075
7.96,-0.105
7.962,-0.115
7.964,-0.115
7.966,-0.07
7.968,-0.1
7.97,-0.085
7.972,-0.045
7.974,-0.08
7.976,-0.07
7.978,-0.1
7.98,-0.11
7.982,-0.085
7.984,-0.095
7.986,-0.095
7.988,-0.085
7.99,-0.02
7.992,-0.01
7.994,-0.015
7.996,-0.035
7.998,-0.075
8,-0.11
8.002,-0.09
8.004,-0.095
8.006,-0.01
8.008,0.02
8.01,0.07
8.012,0.065
8.014,0.055
8.016,0
8.018,-0.005
8.02,-0.03
8.022,-0.095
8.024,-0.115
8.026,-0.025
8.028,0.06
8.03,0.105
8.032,0.19
8.034,0.245
8.036,0.155
8.038,0.09
8.04,0.06
8.042,-0.015
8.044,-0.065
8.046,-0.095
8.048,-0.07
8.05,-0.05
8.052,-0.07
8.054,-0.14
8.056,-0.225
8.058,-0.285
8.06,-0.255
8.062,-0.235
8.064,-0.22
8.066,-0.125
8.068,-0.05
8.07,-0.015
8.072,-0.025
8.074,0.01
8.076,-0.025
8.078,-0.06
8.08,-0.09
8.082,-0.115
8.084,-0.095
8.086,-0.085
8.088,-0.065
8.09,-0.04
8.092,-0.05
8.094,-0.03
8.096,-0.06
8.098,-0.025
8.1,-0.03
8.102,-0.08
8.104,-0.115
8.106,-0.135
8.108,-0.05
8.11,-0.025
8.112,-0.055
8.114,-0.01
8.116,0.01
8.118,-0.045
8.12,-0.095
8.122,-0.105
8.124,-0.05
8.126,-0.045
8.128,0
8.13,0.015
8.132,0.015
8.134,0.005
8.136,0.01
8.138,-0.065
8.14,-0.07
8.142,-0.05
8.144,-0.03
8.146,-0.02
8.148,0.045
8.15,0.05
8.152,0.01
8.154,0.005
8.156,-0.005
8.158,0.005
8.16,-0.005
8.162,-0.055
8.164,-0.025
8.166,0
8.168,0.02
8.17,0.05
8.172,0.04
8.174,0.02
8.176,0.01
8.178,-0.01
8.18,0
8.182,0.025
8.184,-0.015
8.186,0.015
8.188,0.04
8.19,0.03
8.192,0.05
8.194,0.05
8.196,0.07
8.198,-0.005
8.2,0.005
8.202,0.04
8.204,0.02
8.206,0.04
8.208,0.065
8.21,0.085
8.212,0.1
8.214,0.06
8.216,0.075
8.218,0.055
8.22,0.025
8.222,0.02
8.224,0.075
8.226,0.075
8.228,0.085
8.23,0.1
8.232,0.175
8.234,0.155
8.236,0.165
8.238,0.12
8.24,0.105
8.242,0.075
8.244,0.13
8.246,0.175
8.248,0.205
8.25,0.195
8.252,0.23
8.254,0.23
8.256,0.19
8.258,0.16
8.26,0.145
8.262,0.12
8.264,0.165
8.266,0.17
8.268,0.23
8.27,0.23
8.272,0.23
8.274,0.215
8.276,0.18
8.278,0.105
8.28,0.18
8.282,0.17
8.284,0.18
8.286,0.175
8.288,0.195
8.29,0.22
8.292,0.205
8.294,0.2
8.296,0.185
8.298,0.125
8.3,0.095
8.302,0.07
8.304,0.065
8.306,0.075
8.308,0.12
8.31,0.095
8.312,0.105
8.314,0.08
8.316,0.03
8.318,-0.015
8.32,0.035
8.322,0.02
8.324,-0.005
8.326,0.015
8.328,0.03
8.33,0.005
8.332,0.05
8.334,0.015
8.336,0.01
8.338,-0.05
8.34,-0.09
8.342,-0.08
8.344,-0.03
8.346,0
8.348,0.04
8.35,0
8.352,0.03
8.354,0.015
8.356,-0.04
8.358,-0.11
8.36,-0.06
8.362,-0.04
8.364,-0.04
8.366,0.005
8.368,0.01
8.37,0.005
8.372,0
8.374,-0.04
8.376,-0.055
8.378,-0.055
8.38,-0.045
8.382,-0.05
8.384,-0.03
8.386,0
8.388,-0.03
8.39,-0.06
8.392,-0.045
8.394,-0.02
8.396,-0.03
8.398,-0.095
8.4,-0.085
8.402,-0.075
8.404,-0.065
8.406,-0.045
8.408,-0.02
8.41,0.025
8.412,0.03
8.414,0
8.416,-0.105
8.418,-0.12
8.42,-0.06
8.422,-0.04
8.424,-0.045
8.426,-0.02
8.428,0.03
8.43,0.015
8.432,-0.005
8.434,-0.015
8.436,-0.03
8.438,-0.055
8.44,-0.05
8.442,-0.025
8.444,-0.02
8.446,-0.005
8.448,0.025
8.45,-0.02
8.452,-0.015
8.454,-0.03
8.456,0
8.458,-0.04
8.46,-0.045
8.462,-0.03
8.464,-0.035
8.466,0.03
8.468,0.07
8.47,0.035
8.472,0.035
8.474,0.01
8.476,-0.07
8.478,-0.055
8.48,-0.07
8.482,-0.02
8.484,-0.015
8.486,0.05
8.488,0.01
8.49,0.015
8.492,0.03
8.494,-0.005
8.496,-0.02
8.498,-0.025
8.5,-0.04
8.502,-0.045
8.504,-0.045
8.506,0.01
8.508,0.015
8.51,0
8.512,-0.02
8.514,-0.025
8.516,-0.03
8.518,-0.055
8.52,-0.05
8.522,-0.06
8.524,-0.05
8.526,-0.025
8.528,0.005
8.53,0.03
8.532,0.03
8.534,0.03
8.536,-0.055
8.538,-0.06
8.54,-0.095
8.542,-0.035
8.544,0.025
8.546,0.045
8.548,0.015
8.55,0.03
8.552,0.04
8.554,0.005
8.556,-0.05
8.558,-0.075
8.56,-0.065
8.562,-0.06
8.564,-0.005
8.566,0.025
8.568,0.09
8.57,0.08
8.572,0.005
8.574,0.035
8.576,-0.035
8.578,-0.055
8.58,-0.095
8.582,-0.06
8.584,-0.02
8.586,0.02
8.588,-0.01
8.59,0.02
8.592,0.01
8.594,-0.055
8.596,-0.07
8.598,-0.05
8.6,-0.08
8.602,-0.06
8.604,0.015
8.606,0.06
8.608,0.03
8.61,0.06
8.612,0.02
8.614,-0.005
8.616,-0.065
8.618,0.01
8.62,-0.025
8.622,-0.03
8.624,0.005
8.626,0.065
8.628,0.03
8.63,0.02
8.632,0.02
8.634,-0.04
8.636,-0.03
8.638,0.02
8.64,0.02
8.642,0.03
8.644,0.035
8.646,0.095
8.648,0.085
8.65,0.1
8.652,0.1
8.654,0.05
8.656,-0.05
8.658,0
8.66,0.08
8.662,0.075
8.664,0.085
8.666,0.13
8.668,0.14
8.67,0.12
8.672,0.08
8.674,0.045
8.676,0.015
8.678,0.005
8.68,0.01
8.682,0.015
8.684,0.04
8.686,0.035
8.688,-0.02
8.69,-0.035
8.692,-0.005
8.694,0.005
8.696,-0.005
8.698,-0.01
8.7,-0.01
8.702,0
8.704,0.045
8.706,0.05
8.708,0.065
8.71,0.04
8.712,0.005
8.714,-0.03
8.716,-0.005
8.718,-0.05
8.72,-0.055
8.722,-0.04
8.724,0.025
8.726,0.05
8.728,0.005
8.73,-0.02
8.732,-0.025
8.734,-0.005
8.736,0.02
8.738,-0.04
8.74,-0.035
8.742,-0.02
8.744,0.03
8.746,0.035
8.748,0.02
8.75,0.045
8.752,0
8.754,-0.05
8.756,-0.03
8.758,-0.035
8.76,0
8.762,0.025
8.764,0.055
8.766,0.045
8.768,0.03
8.77,0.025
8.772,0.03
8.774,0.05
8.776,-0.025
8.778,-0.02
8.78,0.02
8.782,0.09
8.784,0.15
8.786,0.17
8.788,0.185
8.79,0.14
8.792,0.11
8.794,0.02
8.796,0.01
8.798,0.01
8.8,0.04
8.802,0.08
8.804,0.175
8.806,0.25
8.808,0.295
8.81,0.255
8.812,0.17
8.814,0.085
8.816,0.045
8.818,0.035
8.82,0.05
8.822,0.02
8.824,0.025
8.826,-0.01
8.828,-0.08
8.83,-0.165
8.832,-0.205
8.834,-0.215
8.836,-0.195
8.838,-0.15
8.84,-0.095
8.842,-0.005
8.844,0.06
8.846,0.06
8.848,0.105
8.85,0.06
8.852,0.02
8.854,-0.005
8.856,0
8.858,-0.045
8.86,-0.045
8.862,0.02
8.864,0.07
8.866,0.08
8.868,0.07
8.87,0.035
8.872,0.01
8.874,-0.015
8.876,0.015
8.878,-0.025
8.88,0.02
8.882,0.04
8.884,0.095
8.886,0.075
8.888,0.09
8.89,0.095
8.892,0.045
8.894,-0.015
8.896,0
8.898,-0.005
8.9,-0.005
8.902,0.035
8.904,0.075
8.906,0.055
8.908,0.07
8.91,0.085
8.912,0.05
8.914,0.035
8.916,0.035
8.918,0.01
8.92,0.01
8.922,0.06
8.924,0.1
8.926,0.07
8.928,0.085
8.93,0.075
8.932,0.055
8.934,0.005
8.936,-0.01
8.938,-0.005
8.94,0.02
8.942,0.02
8.944,0.035
8.946,0.01
8.948,0.07
8.95,0.085
8.952,0.07
8.954,0.02
8.956,0.05
8.958,0.065
8.96,0.045
8.962,0.06
8.964,0.075
8.966,0.135
8.968,0.13
8.97,0.14
8.972,0.1
8.974,0.01
8.976,0.005
8.978,0.05
8.98,0.065
8.982,0.07
8.984,0.135
8.986,0.105
8.988,0.095
8.99,0.105
8.992,0.065
8.994,0.065
8.996,0.1
8.998,0.14
9,0.14
9.002,0.155
9.004,0.205
9.006,0.19
9.008,0.17
9.01,0.195
9.012,0.155
9.014,0.14
9.016,0.155
9.018,0.175
9.02,0.165
9.022,0.215
9.024,0.27
9.026,0.285
9.028,0.25
9.03,0.215
9.032,0.215
9.034,0.21
9.036,0.18
9.038,0.19
9.04,0.2
9.042,0.23
9.044,0.25
9.046,0.255
9.048,0.225
9.05,0.235
9.052,0.18
9.054,0.21
9.056,0.22
9.058,0.23
9.06,0.2
9.062,0.21
9.064,0.225
9.066,0.235
9.068,0.19
9.07,0.18
9.072,0.135
9.074,0.095
9.076,0.125
9.078,0.115
9.08,0.105
9.082,0.115
9.084,0.105
9.086,0.1
9.088,0.11
9.09,0.07
9.092,0.01
9.094,0.025
9.096,0.005
9.098,0.04
9.1,0.035
9.102,0.045
9.104,0.055
9.106,0.045
9.108,-0.005
9.11,-0.045
9.112,-0.06
9.114,-0.055
9.116,-0.06
9.118,-0.03
9.12,-0.025
9.122,-0.005
9.124,0.045
9.126,0.015
9.128,0
9.13,0.015
9.132,-0.055
9.134,-0.07
9.136,-0.05
9.138,-0.035
9.14,-0.06
9.142,0.01
9.144,0.025
9.146,0.005
9.148,-0.025
9.15,-0.02
9.152,-0.035
9.154,-0.025
9.156,-0.04
9.158,-0.085
9.16,-0.06
9.162,0.03
9.164,0.04
9.166,0
9.168,-0.015
9.17,-0.04
9.172,-0.09
9.174,-0.055
9.176,-0.07
9.178,-0.095
9.18,-0.025
9.182,0.015
9.184,0.005
9.186,0.04
9.188,0
9.19,-0.025
9.192,-0.04
9.194,-0.03
9.196,-0.055
9.198,-0.045
9.2,0.015
9.202,0.025
9.204,0.01
9.206,-0.01
9.208,-0.01
9.21,0
9.212,-0.035
9.214,-0.04
9.216,-0.05
9.218,-0.01
9.22,0.005
9.222,0.025
9.224,0.02
9.226,0.025
9.228,0.02
9.23,-0.005
9.232,-0.045
9.234,-0.055
9.236,-0.005
9.238,0.03
9.24,0.055
9.242,0.045
9.244,0.05
9.246,0.035
9.248,0
9.25,-0.025
9.252,-0.045
9.254,-0.035
9.256,-0.035
9.258,-0.025
9.26,0.005
9.262,0.03
9.264,0.04
9.266,0.035
9.268,0.03
9.27,-0.055
9.272,-0.07
9.274,-0.05
9.276,-0.035
9.278,-0.025
9.28,-0.005
9.282,0
9.284,0.015
9.286,-0.005
9.288,-0.01
9.29,0
9.292,-0.055
9.294,-0.105
9.296,-0.045
9.298,-0.01
9.3,0.04
9.302,0.045
9.304,0.03
9.306,-0.005
9.308,-0.02
9.31,-0.04
9.312,-0.025
9.314,-0.035
9.316,0
9.318,0
9.32,0.07
9.322,0.035
9.324,0.01
9.326,0.03
9.328,0.03
9.33,0
9.332,-0.02
9.334,-0.05
9.336,-0.04
9.338,-0.025
9.34,0.015
9.342,0.025
9.344,0.045
9.346,0.025
9.348,-0.01
9.35,-0.04
9.352,-0.045
9.354,-0.025
9.356,0.02
9.358,0.005
9.36,0.03
9.362,0.035
9.364,0.04
9.366,0.035
9.368,0.015
9.37,-0.03
9.372,-0.005
9.374,-0.005
9.376,-0.025
9.378,0
9.38,0.05
9.382,0.1
9.384,0.015
9.386,-0.005
9.388,0.055
9.39,0.03
9.392,-0.07
9.394,-0.055
9.396,-0.02
9.398,-0.01
9.4,0.02
9.402,0.025
9.404,0.015
9.406,-0.005
9.408,0.03
9.41,-0.015
9.412,-0.005
9.414,-0.02
9.416,-0.025
9.418,0
9.42,0.01
9.422,0.015
9.424,0.05
9.426,0
9.428,-0.025
9.43,-0.045
9.432,-0.025
9.434,-0.045
9.436,0.005
9.438,0.055
9.44,0.115
9.442,0.04
9.444,0.045
9.446,0.01
9.448,-0.005
9.45,-0.05
9.452,-0.01
9.454,0.015
9.456,0.04
9.458,0.06
9.46,0.11
9.462,0.13
9.464,0.13
9.466,0.055
9.468,0.03
9.47,-0.01
9.472,-0.015
9.474,0.04
9.476,0.08
9.478,0.085
9.48,0.105
9.482,0.115
9.484,0.13
9.486,0.015
9.488,-0.035
9.49,-0.045
9.492,-0.025
9.494,-0.03
9.496,0.015
9.498,0.035
9.5,0.03
9.502,0.005
9.504,-0.005
9.506,0.015
9.508,-0.005
9.51,-0.095
9.512,-0.07
9.514,-0.03
9.516,-0.005
9.518,0.04
9.52,0.06
9.522,0.03
9.524,0.03
9.526,0.035
9.528,-0.04
9.53,-0.065
9.532,-0.06
9.534,-0.035
9.536,-0.035
9.538,-0.02
9.54,-0.025
9.542,-0.01
9.544,0.03
9.546,0.045
9.548,0.005
9.55,-0.04
9.552,-0.03
9.554,-0.04
9.556,-0.065
9.558,-0.03
9.56,0.005
9.562,0.045
9.564,0.04
9.566,-0.025
9.568,-0.075
9.57,-0.065
9.572,0.02
9.574,-0.04
9.576,-0.005
9.578,0.005
9.58,0.03
9.582,0.05
9.584,0.08
9.586,0.06
9.588,0.005
9.59,-0.01
9.592,0.015
9.594,0.075
9.596,0.085
9.598,0.16
9.6,0.165
9.602,0.125
9.604,0.1
9.606,0.08
9.608,0.02
9.61,-0.025
9.612,-0.045
9.614,0.055
9.616,0.145
9.618,0.245
9.62,0.275
9.622,0.27
9.624,0.2
9.626,0.14
9.628,0.045
9.63,0.035
9.632,-0.03
9.634,0.015
9.636,-0.01
9.638,-0.03
9.64,-0.115
9.642,-0.14
9.644,-0.175
9.646,-0.175
9.648,-0.2
9.65,-0.11
9.652,-0.06
9.654,-0.02
9.656,0.005
9.658,0.05
9.66,0.055
9.662,0.08
9.664,0.045
9.666,-0.01
9.668,-0.055
9.67,-0.03
9.672,-0.055
9.674,-0.055
9.676,-0.02
9.678,0.025
9.68,0.005
9.682,0.055
9.684,0.01
9.686,0.025
9.688,-0.02
9.69,0.005
9.692,-0.005
9.694,-0.01
9.696,-0.005
9.698,0.05
9.7,0.015
9.702,0.02
9.704,0.02
9.706,0.015
9.708,0.03
9.71,-0.015
9.712,-0.015
9.714,-0.015
9.716,0.015
9.718,0.055
9.72,0.045
9.722,0.05
9.724,0.045
9.726,0.02
9.728,-0.01
9.73,0.02
9.732,-0.01
9.734,-0.03
9.736,-0.01
9.738,0.05
9.74,0.145
9.742,0.075
9.744,0.08
9.746,0.01
9.748,-0.025
9.75,0.005
9.752,-0.01
9.754,0.025
9.756,0.02
9.758,0.06
9.76,0.05
9.762,0.05
9.764,0.06
9.766,0.04
9.768,0
9.77,-0.03
9.772,0
9.774,-0.005
9.776,0.035
9.778,0.095
9.78,0.08
9.782,0.105
9.784,0.12
9.786,0.035
9.788,0.025
9.79,0
9.792,0.015
9.794,0.045
9.796,0.055
9.798,0.12
9.8,0.165
9.802,0.135
9.804,0.09
9.806,0.09
9.808,0.075
9.81,0.095
9.812,0.085
9.814,0.09
9.816,0.15
9.818,0.175
9.82,0.155
9.822,0.2
9.824,0.215
9.826,0.145
9.828,0.13
9.83,0.125
9.832,0.19
9.834,0.2
9.836,0.22
9.838,0.22
9.84,0.275
9.842,0.265
9.844,0.23
9.846,0.185
9.848,0.16
9.85,0.185
9.852,0.165
9.854,0.195
9.856,0.25
9.858,0.25
9.86,0.225
9.862,0.245
9.864,0.2
9.866,0.15
9.868,0.135
9.87,0.135
9.872,0.175
9.874,0.22
9.876,0.215
9.878,0.225
9.88,0.245
9.882,0.195
9.884,0.17
9.886,0.08
9.888,0.085
9.89,0.07
9.892,0.08
9.894,0.09
9.896,0.115
9.898,0.14
9.9,0.145
9.902,0.09
9.904,0.07
9.906,0.03
9.908,0.01
9.91,0.005
9.912,0
9.914,-0.03
9.916,0.025
9.918,0.045
9.92,0.05
9.922,0.05
9.924,0.06
9.926,0
9.928,-0.025
9.93,-0.065
9.932,-0.025
9.934,0.01
9.936,0.03
9.938,0.025
9.94,0.015
9.942,-0.035
9.944,0.04
9.946,-0.02
9.948,-0.05
9.95,-0.045
9.952,-0.045
9.954,-0.045
9.956,-0.005
9.958,0.04
9.96,0.01
9.962,0.02
9.964,0.035
9.966,-0.035
9.968,-0.07
9.97,-0.085
9.972,-0.055
9.974,-0.015
9.976,0.04
9.978,0.03
9.98,0.04
9.982,-0.005
9.984,-0.045
9.986,-0.045
9.988,-0.015
9.99,-0.045
9.992,-0.04
9.994,-0.02
9.996,0.015
9.998,0
