0,0.3
0.002,0.17
0.004,0.195
0.006,0.08
0.008,-0.005
0.01,-0.01
0.012,-0.125
0.014,0.015
0.016,0.175
0.018,0.29
0.02,0.345
0.022,0.265
0.024,0.185
0.026,0.1
0.028,-0.03
0.03,-0.005
0.032,0.03
0.034,0.1
0.036,0.205
0.038,0.27
0.04,0.39
0.042,0.345
0.044,0.145
0.046,0.125
0.048,0.04
0.05,-0.005
0.052,-0.005
0.054,-0.035
0.056,0.145
0.058,0.275
0.06,0.355
0.062,0.36
0.064,0.24
0.066,0.075
0.068,0.01
0.07,-0.05
0.072,-0.135
0.074,-0.09
0.076,0.21
0.078,0.245
0.08,0.305
0.082,0.335
0.084,0.225
0.086,0.09
0.088,-0.065
0.09,-0.07
0.092,0.005
0.094,0
0.096,0.22
0.098,0.21
0.1,0.265
0.102,0.255
0.104,0.28
0.106,0.12
0.108,-0.05
0.11,-0.05
0.112,0.02
0.114,0.065
0.116,0.19
0.118,0.305
0.12,0.335
0.122,0.28
0.124,0.205
0.126,0.05
0.128,0.015
0.13,-0.14
0.132,-0.075
0.134,0.03
0.136,0.225
0.138,0.345
0.14,0.23
0.142,0.195
0.144,0.095
0.146,-0.065
0.148,-0.085
0.15,-0.105
0.152,0.05
0.154,0.035
0.156,0.175
0.158,0.3
0.16,0.33
0.162,0.275
0.164,0.14
0.166,0.07
0.168,0.01
0.17,-0.14
0.172,0.02
0.174,0.14
0.176,0.19
0.178,0.27
0.18,0.36
0.182,0.08
0.184,0.015
0.186,-0.09
0.188,-0.025
0.19,0.025
0.192,-0.005
0.194,0.07
0.196,0.22
0.198,0.35
0.2,0.325
0.202,0.25
0.204,-0.02
0.206,0.005
0.208,0.03
0.21,-0.06
0.212,0.005
0.214,0.09
0.216,0.165
0.218,0.235
0.22,0.21
0.222,0.18
0.224,0.12
0.226,0.01
0.228,-0.08
0.23,-0.035
0.232,0.04
0.234,0.14
0.236,0.17
0.238,0.21
0.24,0.17
0.242,0.18
0.244,0.09
0.246,0.02
0.248,-0.115
0.25,-0.065
0.252,0.045
0.254,0.12
0.256,0.21
0.258,0.39
0.26,0.405
0.262,0.16
0.264,0.01
0.266,-0.035
0.268,-0.055
0.27,-0.115
0.272,0.02
0.274,0.18
0.276,0.29
0.278,0.205
0.28,0.21
0.282,0.185
0.284,0.01
0.286,-0.07
0.288,-0.025
0.29,-0.01
0.292,0.065
0.294,0.16
0.296,0.225
0.298,0.335
0.3,0.38
0.302,0.14
0.304,0.045
0.306,0.005
0.308,-0.075
0.31,-0.125
0.312,0.045
0.314,0.135
0.316,0.26
0.318,0.265
0.32,0.235
0.322,0.07
0.324,-0.07
0.326,-0.095
0.328,-0.01
0.33,-0.045
0.332,-0.015
0.334,0.185
0.336,0.36
0.338,0.27
0.34,0.175
0.342,0.18
0.344,-0.01
0.346,-0.175
0.348,-0.07
0.35,-0.1
0.352,-0.01
0.354,0.21
0.356,0.28
0.358,0.325
0.36,0.205
0.362,0.16
0.364,0.085
0.366,-0.075
0.368,-0.125
0.37,-0.015
0.372,0.105
0.374,0.18
0.376,0.25
0.378,0.28
0.38,0.24
0.382,0.2
0.384,0.13
0.386,0.045
0.388,-0.11
0.39,-0.125
0.392,0.055
0.394,0.13
0.396,0.205
0.398,0.195
0.4,0.16
0.402,0.09
0.404,-0.04
0.406,-0.18
0.408,-0.065
0.41,0.015
0.412,-0.03
0.414,0.23
0.416,0.335
0.418,0.33
0.42,0.26
0.422,0.16
0.424,0.01
0.426,-0.055
0.428,-0.185
0.43,-0.085
0.432,0.07
0.434,0.21
0.436,0.27
0.438,0.24
0.44,0.24
0.442,0.185
0.444,-0.015
0.446,-0.045
0.448,-0.12
0.45,-0.04
0.452,0.075
0.454,0.3
0.456,0.3
0.458,0.29
0.46,0.225
0.462,0.16
0.464,0
0.466,0.015
0.468,0.02
0.47,-0.02
0.472,0.155
0.474,0.19
0.476,0.3
0.478,0.26
0.48,0.32
0.482,0.17
0.484,0.045
0.486,-0.075
0.488,-0.045
0.49,0.11
0.492,0.215
0.494,0.26
0.496,0.285
0.498,0.32
0.5,0.26
0.502,0.11
0.504,-0.045
0.506,-0.13
0.508,-0.125
0.51,0.02
0.512,0.125
0.514,0.155
0.516,0.185
0.518,0.22
0.52,0.18
0.522,0.11
0.524,-0.025
0.526,-0.085
0.528,-0.1
0.53,-0.09
0.532,0.075
0.534,0.15
0.536,0.285
0.538,0.17
0.54,0.135
0.542,-0.05
0.544,0.035
0.546,0.045
0.548,-0.11
0.55,0.02
0.552,0.005
0.554,0.195
0.556,0.25
0.558,0.285
0.56,0.195
0.562,-0.025
0.564,-0.07
0.566,-0.12
0.568,-0.11
0.57,-0.08
0.572,0.14
0.574,0.21
0.576,0.21
0.578,0.16
0.58,0.175
0.582,0.08
0.584,-0.135
0.586,-0.105
0.588,-0.08
0.59,0.01
0.592,0.14
0.594,0.245
0.596,0.21
0.598,0.205
0.6,0.195
0.602,0.14
0.604,0.05
0.606,0.05
0.608,0.13
0.61,0.27
0.612,0.49
0.614,0.63
0.616,0.82
0.618,0.825
0.62,0.76
0.622,0.56
0.624,0.26
0.626,0.145
0.628,0.04
0.63,0.06
0.632,0.27
0.634,0.085
0.636,0.115
0.638,0
0.64,-0.06
0.642,-0.275
0.644,-0.45
0.646,-0.3
0.648,-0.36
0.65,-0.16
0.652,0.015
0.654,0.095
0.656,0.025
0.658,0.05
0.66,-0.1
0.662,-0.03
0.664,-0.05
0.666,-0.075
0.668,-0.135
0.67,-0.015
0.672,0.205
0.674,0.26
0.676,0.22
0.678,0.185
0.68,0.13
0.682,-0.065
0.684,-0.12
0.686,-0.185
0.688,-0.135
0.69,0.07
0.692,0.25
0.694,0.16
0.696,0.23
0.698,0.165
0.7,0.105
0.702,0.02
0.704,-0.09
0.706,-0.16
0.708,-0.01
0.71,0.15
0.712,0.145
0.714,0.2
0.716,0.27
0.718,0.215
0.72,0.115
0.722,-0.025
0.724,0.005
0.726,-0.02
0.728,-0.01
0.73,-0.005
0.732,0.24
0.734,0.35
0.736,0.255
0.738,0.215
0.74,0.05
0.742,-0.03
0.744,-0.085
0.746,-0.035
0.748,0.045
0.75,0.095
0.752,0.075
0.754,0.275
0.756,0.4
0.758,0.215
0.76,0.11
0.762,0.095
0.764,0.045
0.766,-0.01
0.768,-0.085
0.77,0.145
0.772,0.235
0.774,0.295
0.776,0.345
0.778,0.29
0.78,0.2
0.782,0.07
0.784,-0.06
0.786,-0.02
0.788,0.09
0.79,0.22
0.792,0.305
0.794,0.365
0.796,0.385
0.798,0.365
0.8,0.255
0.802,0.04
0.804,0.12
0.806,0.19
0.808,0.17
0.81,0.265
0.812,0.47
0.814,0.515
0.816,0.49
0.818,0.415
0.82,0.35
0.822,0.28
0.824,0.27
0.826,0.225
0.828,0.31
0.83,0.56
0.832,0.655
0.834,0.69
0.836,0.605
0.838,0.59
0.84,0.46
0.842,0.395
0.844,0.25
0.846,0.35
0.848,0.455
0.85,0.575
0.852,0.67
0.854,0.7
0.856,0.715
0.858,0.655
0.86,0.48
0.862,0.39
0.864,0.28
0.866,0.425
0.868,0.385
0.87,0.56
0.872,0.635
0.874,0.635
0.876,0.655
0.878,0.65
0.88,0.415
0.882,0.18
0.884,0.14
0.886,0.255
0.888,0.27
0.89,0.375
0.892,0.455
0.894,0.505
0.896,0.36
0.898,0.435
0.9,0.165
0.902,0.095
0.904,0.185
0.906,0.055
0.908,0.055
0.91,0.245
0.912,0.23
0.914,0.325
0.916,0.32
0.918,0.245
0.92,0.075
0.922,-0.095
0.924,-0.115
0.926,-0.1
0.928,0.005
0.93,0.105
0.932,0.17
0.934,0.36
0.936,0.285
0.938,0.255
0.94,0.07
0.942,0.015
0.944,-0.14
0.946,-0.095
0.948,-0.005
0.95,0.13
0.952,0.145
0.954,0.215
0.956,0.215
0.958,0.075
0.96,-0.075
0.962,-0.09
0.964,0.01
0.966,-0.035
0.968,0.02
0.97,0.165
0.972,0.22
0.974,0.21
0.976,0.105
0.978,0.15
0.98,0.01
0.982,-0.12
0.984,-0.1
0.986,-0.12
0.988,0.045
0.99,0.135
0.992,0.19
0.994,0.275
0.996,0.165
0.998,0.1
1,-0.045
1.002,-0.03
1.004,-0.09
1.006,-0.135
1.008,0.025
1.01,0.24
1.012,0.31
1.014,0.3
1.016,0.22
1.018,0.1
1.02,-0.04
1.022,-0.205
1.024,-0.17
1.026,-0.08
1.028,0.01
1.03,0.19
1.032,0.35
1.034,0.33
1.036,0.3
1.038,0.145
1.04,0.125
1.042,-0.09
1.044,-0.115
1.046,-0.06
1.048,0.155
1.05,0.17
1.052,0.17
1.054,0.235
1.056,0.085
1.058,0.11
1.06,0.075
1.062,-0.065
1.064,-0.105
1.066,-0.08
1.068,0.075
1.07,0.175
1.072,0.255
1.074,0.215
1.076,0.17
1.078,0.07
1.08,-0.005
1.082,-0.055
1.084,-0.05
1.086,0.07
1.088,0.05
1.09,0.055
1.092,0.245
1.094,0.335
1.096,0.05
1.098,0.1
1.1,0.06
1.102,-0.12
1.104,-0.1
1.106,-0.01
1.108,0.125
1.11,0.245
1.112,0.325
1.114,0.25
1.116,0.175
1.118,-0.02
1.12,-0.065
1.122,-0.06
1.124,0.11
1.126,-0.045
1.128,-0.005
1.13,0.18
1.132,0.185
1.134,0.135
1.136,0.105
1.138,0.005
1.14,-0.025
1.142,-0.16
1.144,-0.11
1.146,0.005
1.148,0.07
1.15,0.175
1.152,0.265
1.154,0.24
1.156,0.15
1.158,-0.015
1.16,-0.07
1.162,-0.15
1.164,-0.155
1.166,-0.065
1.168,0.255
1.17,0.155
1.172,0.155
1.174,0.11
1.176,0.16
1.178,0.11
1.18,0.025
1.182,-0.115
1.184,-0.09
1.186,-0.13
1.188,0.02
1.19,0.15
1.192,0.265
1.194,0.105
1.196,0.095
1.198,0.08
1.2,-0.13
1.202,-0.2
1.204,-0.17
1.206,-0.01
1.208,0.105
1.21,0.105
1.212,0.205
1.214,0.195
1.216,0.125
1.218,-0.065
1.22,-0.1
1.222,-0.03
1.224,-0.075
1.226,-0.04
1.228,-0.05
1.23,0.06
1.232,0.27
1.234,0.165
1.236,0.075
1.238,-0.075
1.24,-0.16
1.242,-0.18
1.244,-0.025
1.246,-0.005
1.248,0.17
1.25,0.265
1.252,0.245
1.254,0.115
1.256,0.14
1.258,0.025
1.26,-0.09
1.262,-0.17
1.264,-0.13
1.266,-0.145
1.268,0.125
1.27,0.25
1.272,0.165
1.274,0.035
1.276,0.07
1.278,-0.015
1.28,-0.075
1.282,-0.185
1.284,-0.035
1.286,0.14
1.288,0.16
1.29,0.195
1.292,0.235
1.294,0.205
1.296,0.13
1.298,-0.005
1.3,-0.06
1.302,-0.08
1.304,-0.135
1.306,-0.07
1.308,0.155
1.31,0.2
1.312,0.13
1.314,0.105
1.316,0.085
1.318,-0.075
1.32,-0.1
1.322,-0.125
1.324,-0.065
1.326,0.025
1.328,0.115
1.33,0.25
1.332,0.27
1.334,0.19
1.336,0.075
1.338,-0.02
1.34,-0.065
1.342,-0.155
1.344,-0.09
1.346,-0.015
1.348,0.09
1.35,0.2
1.352,0.325
1.354,0.21
1.356,0.02
1.358,-0.16
1.36,-0.075
1.362,0.015
1.364,0.005
1.366,0.16
1.368,0.24
1.37,0.105
1.372,0.26
1.374,0.175
1.376,-0.04
1.378,-0.1
1.38,-0.065
1.382,-0.01
1.384,-0.09
1.386,0.02
1.388,0.295
1.39,0.295
1.392,0.265
1.394,0.325
1.396,0.235
1.398,-0.005
1.4,-0.075
1.402,-0.08
1.404,0.005
1.406,0.095
1.408,0.22
1.41,0.335
1.412,0.395
1.414,0.235
1.416,0.11
1.418,-0.005
1.42,-0.1
1.422,-0.025
1.424,0.025
1.426,0.1
1.428,0.25
1.43,0.375
1.432,0.31
1.434,0.095
1.436,-0.025
1.438,-0.025
1.44,-0.08
1.442,-0.06
1.444,-0.06
1.446,0.06
1.448,0.235
1.45,0.155
1.452,0.275
1.454,0.19
1.456,0.03
1.458,-0.085
1.46,-0.135
1.462,-0.115
1.464,-0.09
1.466,0.07
1.468,0.195
1.47,0.24
1.472,0.31
1.474,0.135
1.476,-0.075
1.478,-0.125
1.48,-0.2
1.482,-0.155
1.484,-0.03
1.486,0.045
1.488,0.215
1.49,0.295
1.492,0.25
1.494,0.145
1.496,-0.02
1.498,-0.045
1.5,-0.17
1.502,-0.165
1.504,-0.01
1.506,0.13
1.508,0.145
1.51,0.25
1.512,0.2
1.514,0.08
1.516,-0.05
1.518,-0.085
1.52,-0.16
1.522,-0.07
1.524,-0.025
1.526,0.02
1.528,0.22
1.53,0.315
1.532,0.39
1.534,0.385
1.536,0.185
1.538,0.23
1.54,0.22
1.542,0.325
1.544,0.44
1.546,0.58
1.548,0.865
1.55,0.85
1.552,0.635
1.554,0.38
1.556,0.125
1.558,0.005
1.56,-0.125
1.562,-0.195
1.564,-0.085
1.566,-0.025
1.568,-0.035
1.57,-0.04
1.572,-0.065
1.574,-0.19
1.576,-0.22
1.578,-0.39
1.58,-0.43
1.582,-0.265
1.584,-0.17
1.586,0.015
1.588,0.03
1.59,0.13
1.592,0.11
1.594,0.03
1.596,-0.055
1.598,-0.155
1.6,-0.22
1.602,-0.035
1.604,-0.015
1.606,0.155
1.608,0.265
1.61,0.295
1.612,0.225
1.614,0.08
1.616,-0.06
1.618,-0.215
1.62,-0.21
1.622,-0.195
1.624,-0.1
1.626,0.1
1.628,0.295
1.63,0.445
1.632,0.3
1.634,0.115
1.636,-0.065
1.638,-0.165
1.64,-0.11
1.642,0.03
1.644,0.08
1.646,0.195
1.648,0.28
1.65,0.27
1.652,0.155
1.654,0.17
1.656,-0.075
1.658,-0.11
1.66,-0.1
1.662,-0.08
1.664,0.07
1.666,0.185
1.668,0.23
1.67,0.25
1.672,0.26
1.674,0.09
1.676,-0.05
1.678,-0.04
1.68,-0.015
1.682,-0.04
1.684,0.125
1.686,0.185
1.688,0.235
1.69,0.29
1.692,0.2
1.694,0.12
1.696,-0.005
1.698,-0.13
1.7,-0.03
1.702,0.105
1.704,0.245
1.706,0.245
1.708,0.31
1.71,0.26
1.712,0.325
1.714,0.22
1.716,0.115
1.718,0.04
1.72,-0.06
1.722,0.095
1.724,0.25
1.726,0.35
1.728,0.39
1.73,0.42
1.732,0.415
1.734,0.305
1.736,0.24
1.738,0.05
1.74,0.065
1.742,0.3
1.744,0.32
1.746,0.47
1.748,0.495
1.75,0.54
1.752,0.555
1.754,0.41
1.756,0.265
1.758,0.3
1.76,0.215
1.762,0.32
1.764,0.6
1.766,0.61
1.768,0.65
1.77,0.595
1.772,0.625
1.774,0.51
1.776,0.385
1.778,0.32
1.78,0.38
1.782,0.42
1.784,0.525
1.786,0.75
1.788,0.655
1.79,0.86
1.792,0.695
1.794,0.435
1.796,0.34
1.798,0.335
1.8,0.365
1.802,0.305
1.804,0.48
1.806,0.59
1.808,0.615
1.81,0.455
1.812,0.4
1.814,0.315
1.816,0.23
1.818,0.165
1.82,0.165
1.822,0.31
1.824,0.32
1.826,0.33
1.828,0.485
1.83,0.37
1.832,0.315
1.834,0.18
1.836,0.09
1.838,0.055
1.84,0.085
1.842,0.1
1.844,0.17
1.846,0.275
1.848,0.345
1.85,0.22
1.852,0.17
1.854,0.17
1.856,0.05
1.858,-0.025
1.86,-0.075
1.862,-0.005
1.864,0.18
1.866,0.37
1.868,0.36
1.87,0.29
1.872,0.235
1.874,-0.025
1.876,-0.12
1.878,-0.085
1.88,-0.1
1.882,-0.005
1.884,0.16
1.886,0.215
1.888,0.24
1.89,0.165
1.892,0.12
1.894,0.055
1.896,-0.065
1.898,-0.105
1.9,0.045
1.902,-0.025
1.904,0.155
1.906,0.235
1.908,0.31
1.91,0.245
1.912,0.125
1.914,0
1.916,-0.145
1.918,-0.115
1.92,-0.03
1.922,0.005
1.924,0.295
1.926,0.325
1.928,0.32
1.93,0.3
1.932,0.17
1.934,0.08
1.936,-0.075
1.938,-0.06
1.94,-0.04
1.942,0.13
1.944,0.205
1.946,0.32
1.948,0.265
1.95,0.16
1.952,0.015
1.954,-0.065
1.956,-0.08
1.958,0.055
1.96,0.075
1.962,0.115
1.964,0.225
1.966,0.34
1.968,0.235
1.97,0.125
1.972,0.1
1.974,-0.015
1.976,-0.09
1.978,-0.065
1.98,0
1.982,0.105
1.984,0.195
1.986,0.275
1.988,0.285
1.99,0.245
1.992,0.13
1.994,-0.07
1.996,-0.105
1.998,-0.08
2,-0.005
2.002,0.105
2.004,0.205
2.006,0.25
2.008,0.325
2.01,0.26
2.012,0.035
2.014,-0.04
2.016,-0.095
2.018,-0.1
2.02,-0.05
2.022,0.105
2.024,0.26
2.026,0.325
2.028,0.235
2.03,0.255
2.032,0.1
2.034,-0.125
2.036,-0.175
2.038,0.04
2.04,-0.055
2.042,0.04
2.044,0.185
2.046,0.375
2.048,0.165
2.05,0.15
2.052,0.05
2.054,-0.075
2.056,-0.105
2.058,-0.065
2.06,-0.02
2.062,0.115
2.064,0.185
2.066,0.315
2.068,0.175
2.07,0.095
2.072,0.12
2.074,0.02
2.076,-0.11
2.078,-0.105
2.08,-0.05
2.082,0.125
2.084,0.19
2.086,0.225
2.088,0.18
2.09,0.105
2.092,-0.075
2.094,0.03
2.096,-0.105
2.098,-0.055
2.1,-0.025
2.102,0.18
2.104,0.285
2.106,0.24
2.108,0.145
2.11,0.13
2.112,-0.01
2.114,-0.065
2.116,-0.135
2.118,-0.14
2.12,0.025
2.122,0.195
2.124,0.23
2.126,0.25
2.128,0.18
2.13,0.09
2.132,0.015
2.134,-0.035
2.136,-0.1
2.138,-0.075
2.14,-0.02
2.142,0.08
2.144,0.17
2.146,0.15
2.148,0.15
2.15,0.235
2.152,0.09
2.154,-0.095
2.156,-0.11
2.158,-0.15
2.16,-0.095
2.162,0.16
2.164,0.21
2.166,0.29
2.168,0.1
2.17,-0.03
2.172,-0.14
2.174,-0.1
2.176,-0.1
2.178,0.045
2.18,0.06
2.182,0.185
2.184,0.185
2.186,0.165
2.188,0.2
2.19,0.18
2.192,0.04
2.194,-0.13
2.196,-0.1
2.198,-0.025
2.2,0.01
2.202,0.085
2.204,0.245
2.206,0.24
2.208,0.205
2.21,0.095
2.212,0.03
2.214,-0.105
2.216,-0.185
2.218,-0.12
2.22,0.04
2.222,0.15
2.224,0.285
2.226,0.325
2.228,0.165
2.23,0.105
2.232,-0.115
2.234,-0.15
2.236,-0.08
2.238,-0.05
2.24,0.08
2.242,0.17
2.244,0.19
2.246,0.2
2.248,0.135
2.25,0.05
2.252,-0.125
2.254,-0.115
2.256,-0.085
2.258,-0.105
2.26,0.07
2.262,0.195
2.264,0.285
2.266,0.255
2.268,0.21
2.27,0.115
2.272,-0.08
2.274,-0.15
2.276,-0.06
2.278,-0.04
2.28,0.045
2.282,0.13
2.284,0.21
2.286,0.255
2.288,0.265
2.29,0.055
2.292,-0.12
2.294,-0.165
2.296,-0.07
2.298,-0.04
2.3,0.035
2.302,0.115
2.304,0.225
2.306,0.26
2.308,0.17
2.31,0.065
2.312,-0.06
2.314,-0.08
2.316,-0.12
2.318,0.01
2.32,0.085
2.322,0.39
2.324,0.385
2.326,0.16
2.328,0.155
2.33,-0.05
2.332,-0.11
2.334,-0.21
2.336,-0.155
2.338,-0.015
2.34,0.09
2.342,0.16
2.344,0.245
2.346,0.235
2.348,0.12
2.35,-0.015
2.352,0.02
2.354,-0.085
2.356,-0.15
2.358,-0.01
2.36,0.145
2.362,0.225
2.364,0.285
2.366,0.27
2.368,0.105
2.37,-0.015
2.372,-0.075
2.374,-0.145
2.376,-0.115
2.378,-0.095
2.38,0.135
2.382,0.265
2.384,0.315
2.386,0.245
2.388,0.185
2.39,0.075
2.392,0
2.394,0.04
2.396,-0.035
2.398,0.005
2.4,0.135
2.402,0.23
2.404,0.305
2.406,0.24
2.408,0.18
2.41,0.035
2.412,-0.04
2.414,-0.035
2.416,0.04
2.418,0.095
2.42,0.21
2.422,0.285
2.424,0.4
2.426,0.37
2.428,0.215
2.43,-0.03
2.432,-0.055
2.434,-0.095
2.436,-0.01
2.438,0.085
2.44,0.29
2.442,0.26
2.444,0.295
2.446,0.355
2.448,0.11
2.45,-0.045
2.452,-0.075
2.454,-0.185
2.456,-0.12
2.458,0.095
2.46,0.06
2.462,0.15
2.464,0.325
2.466,0.32
2.468,0.175
2.47,-0.055
2.472,-0.17
2.474,-0.155
2.476,-0.12
2.478,0.01
2.48,0.175
2.482,0.3
2.484,0.36
2.486,0.245
2.488,0.095
2.49,-0.09
2.492,-0.12
2.494,-0.1
2.496,-0.06
2.498,-0.05
2.5,0.145
2.502,0.22
2.504,0.25
2.506,0.12
2.508,0.11
2.51,0
2.512,-0.17
2.514,-0.155
2.516,-0.05
2.518,-0.01
2.52,0.2
2.522,0.27
2.524,0.12
2.526,0.105
2.528,0.12
2.53,-0.015
2.532,-0.21
2.534,-0.025
2.536,-0.065
2.538,0.06
2.54,0.12
2.542,0.19
2.544,0.285
2.546,0.3
2.548,0.26
2.55,0.185
2.552,0.17
2.554,0.1
2.556,0.155
2.558,0.365
2.56,0.585
2.562,0.815
2.564,0.845
2.566,0.74
2.568,0.655
2.57,0.35
2.572,0.05
2.574,0.03
2.576,0.015
2.578,0.045
2.58,0.03
2.582,0.12
2.584,0.055
2.586,-0.03
2.588,-0.215
2.59,-0.3
2.592,-0.395
2.594,-0.325
2.596,-0.195
2.598,-0.165
2.6,-0.09
2.602,0.02
2.604,0.09
2.606,0.075
2.608,-0.045
2.61,-0.09
2.612,-0.19
2.614,-0.095
2.616,-0.06
2.618,0.07
2.62,0.13
2.622,0.28
2.624,0.19
2.626,0.09
2.628,0.07
2.63,0.005
2.632,-0.18
2.634,-0.05
2.636,-0.055
2.638,0.065
2.64,0.165
2.642,0.195
2.644,0.235
2.646,0.175
2.648,0.115
2.65,-0.045
2.652,-0.075
2.654,-0.07
2.656,0.01
2.658,0.135
2.66,0.15
2.662,0.22
2.664,0.18
2.666,0.235
2.668,0.02
2.67,0.02
2.672,-0.1
2.674,-0.065
2.676,0.05
2.678,0.235
2.68,0.225
2.682,0.39
2.684,0.19
2.686,0.07
2.688,0.09
2.69,-0.085
2.692,-0.09
2.694,0.01
2.696,0.155
2.698,0.205
2.7,0.2
2.702,0.295
2.704,0.23
2.706,0.265
2.708,-0.025
2.71,-0.12
2.712,0.02
2.714,-0.02
2.716,0.035
2.718,0.305
2.72,0.29
2.722,0.37
2.724,0.34
2.726,0.225
2.728,0.06
2.73,-0.105
2.732,0.04
2.734,0.02
2.736,0.07
2.738,0.36
2.74,0.5
2.742,0.365
2.744,0.385
2.746,0.325
2.748,0.195
2.75,0.1
2.752,0.115
2.754,0.165
2.756,0.21
2.758,0.49
2.76,0.47
2.762,0.545
2.764,0.5
2.766,0.405
2.768,0.32
2.77,0.245
2.772,0.335
2.774,0.25
2.776,0.32
2.778,0.52
2.78,0.75
2.782,0.685
2.784,0.695
2.786,0.62
2.788,0.405
2.79,0.435
2.792,0.47
2.794,0.4
2.796,0.525
2.798,0.59
2.8,0.695
2.802,0.665
2.804,0.66
2.806,0.615
2.808,0.455
2.81,0.37
2.812,0.34
2.814,0.46
2.816,0.535
2.818,0.665
2.82,0.62
2.822,0.575
2.824,0.48
2.826,0.4
2.828,0.34
2.83,0.23
2.832,0.315
2.834,0.225
2.836,0.325
2.838,0.515
2.84,0.5
2.842,0.5
2.844,0.48
2.846,0.305
2.848,0.27
2.85,0.135
2.852,0.055
2.854,0.135
2.856,0.15
2.858,0.21
2.86,0.415
2.862,0.35
2.864,0.415
2.866,0.185
2.868,0.005
2.87,-0.03
2.872,0.05
2.874,0.07
2.876,0.155
2.878,0.345
2.88,0.39
2.882,0.145
2.884,0.165
2.886,0.195
2.888,0.04
2.89,-0.04
2.892,-0.055
2.894,-0.06
2.896,0.105
2.898,0.275
2.9,0.26
2.902,0.215
2.904,0.205
2.906,0.12
2.908,0.015
2.91,-0.03
2.912,-0.045
2.914,-0.04
2.916,0.095
2.918,0.205
2.92,0.335
2.922,0.375
2.924,0.225
2.926,0.09
2.928,0.065
2.93,0.035
2.932,-0.02
2.934,-0.005
2.936,0.165
2.938,0.23
2.94,0.29
2.942,0.235
2.944,0.145
2.946,0.025
2.948,-0.005
2.95,-0.06
2.952,0.04
2.954,0.045
2.956,0.065
2.958,0.265
2.96,0.4
2.962,0.265
2.964,0.175
2.966,0.11
2.968,-0.025
2.97,-0.12
2.972,-0.075
2.974,0.045
2.976,0.175
2.978,0.315
2.98,0.33
2.982,0.2
2.984,0.3
2.986,0.04
2.988,-0.025
2.99,-0.06
2.992,-0.035
2.994,0.065
2.996,0.11
2.998,0.23
3,0.385
3.002,0.3
3.004,0.255
3.006,0.08
3.008,0.02
3.01,-0.02
3.012,0
3.014,0.075
3.016,0.13
3.018,0.245
3.02,0.255
3.022,0.27
3.024,0.2
3.026,0.02
3.028,0.03
3.03,-0.125
3.032,-0.05
3.034,0.035
3.036,0.315
3.038,0.34
3.04,0.275
3.042,0.175
3.044,0.145
3.046,0.05
3.048,-0.06
3.05,-0.055
3.052,-0.015
3.054,0.065
3.056,0.27
3.058,0.26
3.06,0.31
3.062,0.29
3.064,0.095
3.066,-0.11
3.068,-0.11
3.07,-0.1
3.072,0.005
3.074,0.055
3.076,0.24
3.078,0.3
3.08,0.38
3.082,0.23
3.084,0.075
3.086,-0.01
3.088,-0.1
3.09,-0.15
3.092,0.005
3.094,0.29
3.096,0.18
3.098,0.255
3.1,0.295
3.102,0.255
3.104,0.135
3.106,0.005
3.108,-0.07
3.11,-0.1
3.112,-0.06
3.114,0.005
3.116,0.245
3.118,0.305
3.12,0.33
3.122,0.245
3.124,0.105
3.126,0.04
3.128,-0.1
3.13,-0.01
3.132,0.05
3.134,0.015
3.136,0.065
3.138,0.27
3.14,0.325
3.142,0.235
3.144,0.115
3.146,0
3.148,-0.12
3.15,-0.06
3.152,-0.035
3.154,0.055
3.156,0.33
3.158,0.34
3.16,0.26
3.162,0.195
3.164,0.085
3.166,-0.125
3.168,-0.07
3.17,-0.015
3.172,-0.02
3.174,0.115
3.176,0.295
3.178,0.33
3.18,0.355
3.182,0.245
3.184,-0.005
3.186,-0.145
3.188,-0.13
3.19,-0.065
3.192,-0.015
3.194,0.195
3.196,0.4
3.198,0.33
3.2,0.29
3.202,0.205
3.204,0.17
3.206,-0.055
3.208,-0.115
3.21,-0.095
3.212,-0.065
3.214,0.2
3.216,0.255
3.218,0.175
3.22,0.215
3.222,0.23
3.224,0.135
3.226,0.04
3.228,-0.03
3.23,-0.075
3.232,-0.045
3.234,0.055
3.236,0.215
3.238,0.37
3.24,0.215
3.242,0.185
3.244,0.135
3.246,0.045
3.248,-0.05
3.25,-0.04
3.252,0.015
3.254,0.19
3.256,0.205
3.258,0.17
3.26,0.23
3.262,0.335
3.264,-0.05
3.266,-0.055
3.268,-0.06
3.27,-0.05
3.272,0.065
3.274,0.15
3.276,0.275
3.278,0.305
3.28,0.32
3.282,0.175
3.284,-0.035
3.286,-0.025
3.288,-0.065
3.29,0.035
3.292,0.125
3.294,0.145
3.296,0.245
3.298,0.37
3.3,0.28
3.302,0.135
3.304,0.02
3.306,-0.05
3.308,-0.005
3.31,-0.01
3.312,0.035
3.314,0.095
3.316,0.17
3.318,0.285
3.32,0.35
3.322,0.275
3.324,0.1
3.326,-0.06
3.328,-0.095
3.33,-0.025
3.332,0.1
3.334,0.24
3.336,0.335
3.338,0.305
3.34,0.325
3.342,0.24
3.344,0.055
3.346,-0.02
3.348,-0.05
3.35,0.11
3.352,0.125
3.354,0.21
3.356,0.36
3.358,0.495
3.36,0.38
3.362,0.23
3.364,0.155
3.366,-0.02
3.368,0.03
3.37,0.065
3.372,0.1
3.374,0.245
3.376,0.36
3.378,0.355
3.38,0.245
3.382,0.22
3.384,-0.005
3.386,-0.1
3.388,-0.09
3.39,0.005
3.392,0.115
3.394,0.25
3.396,0.24
3.398,0.205
3.4,0.28
3.402,0.205
3.404,-0.115
3.406,-0.12
3.408,-0.12
3.41,0.025
3.412,0.11
3.414,0.155
3.416,0.245
3.418,0.205
3.42,0.115
3.422,0.215
3.424,-0.025
3.426,-0.065
3.428,-0.03
3.43,0.015
3.432,0.075
3.434,0.19
3.436,0.195
3.438,0.25
3.44,0.195
3.442,0.13
3.444,0.075
3.446,-0.09
3.448,-0.07
3.45,0.055
3.452,0.07
3.454,0.195
3.456,0.26
3.458,0.31
3.46,0.235
3.462,0.145
3.464,-0.065
3.466,-0.06
3.468,0.05
3.47,-0.075
3.472,0.095
3.474,0.25
3.476,0.4
3.478,0.465
3.48,0.4
3.482,0.38
3.484,0.405
3.486,0.395
3.488,0.495
3.49,0.57
3.492,0.78
3.494,0.755
3.496,0.74
3.498,0.57
3.5,0.22
3.502,0.09
3.504,-0.07
3.506,-0.215
3.508,-0.34
3.51,-0.23
3.512,-0.025
3.514,0.085
3.516,0.12
3.518,-0.04
3.52,0.09
3.522,-0.16
3.524,-0.205
3.526,-0.28
3.528,-0.3
3.53,-0.1
3.532,0.065
3.534,0.12
3.536,0.27
3.538,0.155
3.54,0.085
3.542,0.095
3.544,-0.065
3.546,-0.11
3.548,-0.08
3.55,-0.045
3.552,0.145
3.554,0.19
3.556,0.245
3.558,0.26
3.56,0.255
3.562,0.145
3.564,0.095
3.566,-0.16
3.568,-0.02
3.57,0.005
3.572,0.22
3.574,0.28
3.576,0.34
3.578,0.28
3.58,0.225
3.582,0.11
3.584,-0.06
3.586,-0.175
3.588,-0.055
3.59,0.12
3.592,0.25
3.594,0.22
3.596,0.31
3.598,0.29
3.6,0.255
3.602,0.1
3.604,0.04
3.606,-0.055
3.608,-0.03
3.61,0.08
3.612,0.25
3.614,0.295
3.616,0.28
3.618,0.305
3.62,0.165
3.622,0.155
3.624,0.01
3.626,-0.045
3.628,0.015
3.63,0.005
3.632,0.19
3.634,0.335
3.636,0.455
3.638,0.39
3.64,0.29
3.642,0.215
3.644,0.115
3.646,-0.165
3.648,0.005
3.65,0.19
3.652,0.405
3.654,0.45
3.656,0.31
3.658,0.345
3.66,0.265
3.662,0.105
3.664,0.12
3.666,0.065
3.668,0.145
3.67,0.295
3.672,0.385
3.674,0.45
3.676,0.435
3.678,0.42
3.68,0.415
3.682,0.275
3.684,0.225
3.686,0.25
3.688,0.26
3.69,0.355
3.692,0.455
3.694,0.555
3.696,0.57
3.698,0.65
3.7,0.55
3.702,0.32
3.704,0.41
3.706,0.415
3.708,0.47
3.71,0.595
3.712,0.65
3.714,0.625
3.716,0.725
3.718,0.65
3.72,0.625
3.722,0.51
3.724,0.45
3.726,0.38
3.728,0.44
3.73,0.655
3.732,0.665
3.734,0.76
3.736,0.72
3.738,0.68
3.74,0.58
3.742,0.405
3.744,0.38
3.746,0.34
3.748,0.41
3.75,0.515
3.752,0.61
3.754,0.645
3.756,0.715
3.758,0.565
3.76,0.43
3.762,0.255
3.764,0.15
3.766,0.16
3.768,0.25
3.77,0.355
3.772,0.415
3.774,0.54
3.776,0.535
3.778,0.365
3.78,0.25
3.782,0.15
3.784,0.195
3.786,0.115
3.788,0.09
3.79,0.195
3.792,0.295
3.794,0.435
3.796,0.32
3.798,0.215
3.8,0.125
3.802,-0.005
3.804,0.025
3.806,0.04
3.808,0.075
3.81,0.2
3.812,0.31
3.814,0.3
3.816,0.33
3.818,0.36
3.82,0.15
3.822,-0.015
3.824,0.01
3.826,-0.015
3.828,-0.055
3.83,0.13
3.832,0.38
3.834,0.335
3.836,0.325
3.838,0.265
3.84,0.09
3.842,-0.13
3.844,-0.02
3.846,0.055
3.848,0.085
3.85,0.215
3.852,0.245
3.854,0.365
3.856,0.26
3.858,0.195
3.86,0.105
3.862,0.13
3.864,-0.01
3.866,0.005
3.868,0.015
3.87,0.215
3.872,0.31
3.874,0.305
3.876,0.245
3.878,0.185
3.88,0.17
3.882,-0.08
3.884,0.04
3.886,-0.015
3.888,0.085
3.89,0.17
3.892,0.28
3.894,0.38
3.896,0.345
3.898,0.315
3.9,0.21
3.902,-0.01
3.904,-0.075
3.906,-0.03
3.908,0.015
3.91,0.25
3.912,0.415
3.914,0.33
3.916,0.32
3.918,0.21
3.92,0.065
3.922,-0.105
3.924,-0.01
3.926,0.03
3.928,0.125
3.93,0.315
3.932,0.29
3.934,0.275
3.936,0.32
3.938,0.25
3.94,0.035
3.942,-0.09
3.944,0.04
3.946,0.13
3.948,0.04
3.95,0.105
3.952,0.23
3.954,0.315
3.956,0.24
3.958,0.235
3.96,0.125
3.962,-0.01
3.964,-0.04
3.966,0.055
3.968,0.025
3.97,0.215
3.972,0.345
3.974,0.4
3.976,0.28
3.978,0.055
3.98,0.015
3.982,-0.095
3.984,-0.095
3.986,-0.01
3.988,0.21
3.99,0.325
3.992,0.34
3.994,0.17
3.996,0.06
3.998,0.155
4,0.1
4.002,0.03
4.004,-0.045
4.006,0.01
4.008,0.08
4.01,0.235
4.012,0.29
4.014,0.425
4.016,0.22
4.018,0.05
4.02,-0.07
4.022,-0.1
4.024,-0.05
4.026,-0.04
4.028,0.11
4.03,0.225
4.032,0.26
4.034,0.345
4.036,0.145
4.038,0.06
4.04,-0.03
4.042,-0.045
4.044,-0.045
4.046,0.025
4.048,0.13
4.05,0.295
4.052,0.415
4.054,0.345
4.056,0.225
4.058,0.075
4.06,-0.055
4.062,-0.08
4.064,-0.05
4.066,0.005
4.068,0.13
4.07,0.235
4.072,0.275
4.074,0.27
4.076,0.155
4.078,0.1
4.08,-0.1
4.082,-0.1
4.084,-0.005
4.086,0.095
4.088,0.23
4.09,0.305
4.092,0.35
4.094,0.27
4.096,0.145
4.098,0.11
4.1,-0.03
4.102,-0.14
4.104,-0.05
4.106,-0.005
4.108,0.23
4.11,0.33
4.112,0.28
4.114,0.28
4.116,0.2
4.118,0.075
4.12,-0.05
4.122,-0.045
4.124,-0.085
4.126,0.07
4.128,0.255
4.13,0.305
4.132,0.18
4.134,0.255
4.136,0.245
4.138,0.125
4.14,-0.025
4.142,-0.1
4.144,0.06
4.146,0.005
4.148,0.095
4.15,0.32
4.152,0.48
4.154,0.33
4.156,0.305
4.158,0.04
4.16,0.05
4.162,0.1
4.164,0.06
4.166,0.155
4.168,0.19
4.17,0.23
4.172,0.365
4.174,0.375
4.176,0.275
4.178,0.125
4.18,-0.035
4.182,0.055
4.184,0.065
4.186,0.135
4.188,0.265
4.19,0.36
4.192,0.31
4.194,0.28
4.196,0.275
4.198,0.12
4.2,-0.005
4.202,-0.03
4.204,0
4.206,0.055
4.208,0.245
4.21,0.2
4.212,0.235
4.214,0.22
4.216,0.195
4.218,0.065
4.22,-0.03
4.222,-0.05
4.224,-0.04
4.226,-0.03
4.228,0.13
4.23,0.21
4.232,0.295
4.234,0.325
4.236,0.2
4.238,-0.02
4.24,-0.045
4.242,-0.13
4.244,-0.09
4.246,0.085
4.248,0.16
4.25,0.24
4.252,0.29
4.254,0.185
4.256,0.115
4.258,0.08
4.26,-0.045
4.262,-0.145
4.264,-0.055
4.266,0.16
4.268,0.225
4.27,0.27
4.272,0.195
4.274,0.125
4.276,0.15
4.278,0.12
4.28,-0.045
4.282,-0.125
4.284,-0.055
4.286,-0.155
4.288,0.095
4.29,0.295
4.292,0.255
4.294,0.175
4.296,0.29
4.298,0.14
4.3,-0.11
4.302,-0.025
4.304,0.13
4.306,0.295
4.308,0.51
4.31,0.675
4.312,0.77
4.314,0.605
4.316,0.57
4.318,0.54
4.32,0.455
4.322,0.395
4.324,0.33
4.326,0.36
4.328,0.395
4.33,0.32
4.332,0.225
4.334,0.16
4.336,-0.025
4.338,-0.26
4.34,-0.275
4.342,-0.225
4.344,-0.27
4.346,-0.195
4.348,-0.055
4.35,-0.115
4.352,0.045
4.354,-0.02
4.356,-0.145
4.358,-0.23
4.36,-0.16
4.362,-0.17
4.364,-0.085
4.366,0.105
4.368,0.15
4.37,0.135
4.372,0.17
4.374,0.185
4.376,0.01
4.378,-0.07
4.38,-0.055
4.382,-0.065
4.384,-0.025
4.386,0.185
4.388,0.12
4.39,0.16
4.392,0.26
4.394,0.175
4.396,0.08
4.398,0.12
4.4,-0.09
4.402,-0.02
4.404,0.045
4.406,0.22
4.408,0.23
4.41,0.31
4.412,0.29
4.414,0.195
4.416,0.09
4.418,0.01
4.42,-0.09
4.422,-0.115
4.424,0.07
4.426,0.26
4.428,0.265
4.43,0.24
4.432,0.285
4.434,0.23
4.436,0.085
4.438,0.12
4.44,0.025
4.442,-0.245
4.444,0.005
4.446,0.38
4.448,0.39
4.45,0.14
4.452,0.165
4.454,0.295
4.456,0.08
4.458,0.02
4.46,-0.01
4.462,0.03
4.464,0.07
4.466,0.13
4.468,0.385
4.47,0.44
4.472,0.3
4.474,0.3
4.476,0.255
4.478,0.16
4.48,0.03
4.482,0.005
4.484,0.045
4.486,0.21
4.488,0.37
4.49,0.425
4.492,0.425
4.494,0.22
4.496,0.16
4.498,0.145
4.5,0.165
4.502,0.085
4.504,0.215
4.506,0.46
4.508,0.57
4.51,0.7
4.512,0.495
4.514,0.41
4.516,0.26
4.518,0.205
4.52,0.24
4.522,0.295
4.524,0.31
4.526,0.56
4.528,0.62
4.53,0.6
4.532,0.65
4.534,0.605
4.536,0.415
4.538,0.39
4.54,0.44
4.542,0.49
4.544,0.47
4.546,0.445
4.548,0.665
4.55,0.655
4.552,0.52
4.554,0.515
4.556,0.54
4.558,0.435
4.56,0.3
4.562,0.33
4.564,0.4
4.566,0.59
4.568,0.645
4.57,0.63
4.572,0.58
4.574,0.49
4.576,0.305
4.578,0.22
4.58,0.295
4.582,0.35
4.584,0.38
4.586,0.5
4.588,0.62
4.59,0.55
4.592,0.245
4.594,0.265
4.596,0.17
4.598,0.215
4.6,0.17
4.602,0.1
4.604,0.25
4.606,0.375
4.608,0.475
4.61,0.36
4.612,0.15
4.614,0.185
4.616,0.135
4.618,-0.035
4.62,0.03
4.622,0.125
4.624,0.05
4.626,0.285
4.628,0.325
4.63,0.455
4.632,0.62
4.634,0.21
4.636,-0.11
4.638,-0.29
4.64,-0.035
4.642,-0.025
4.644,0.16
4.646,0.255
4.648,0.215
4.65,0.245
4.652,0.195
4.654,0.185
4.656,-0.055
4.658,-0.085
4.66,-0.045
4.662,-0.02
4.664,0.14
4.666,0.25
4.668,0.345
4.67,0.385
4.672,0.25
4.674,0.055
4.676,-0.04
4.678,-0.08
4.68,-0.135
4.682,0.04
4.684,0.22
4.686,0.28
4.688,0.225
4.69,0.305
4.692,0.26
4.694,0.205
4.696,0.065
4.698,-0.06
4.7,-0.06
4.702,0.125
4.704,0.05
4.706,0.345
4.708,0.375
4.71,0.285
4.712,0.25
4.714,0.075
4.716,0.055
4.718,-0.025
4.72,0.065
4.722,0.04
4.724,0.19
4.726,0.265
4.728,0.385
4.73,0.22
4.732,0.24
4.734,0.165
4.736,-0.08
4.738,-0.035
4.74,-0.06
4.742,0.055
4.744,0.3
4.746,0.305
4.748,0.275
4.75,0.175
4.752,0.175
4.754,0.065
4.756,-0.04
4.758,-0.02
4.76,0.015
4.762,-0.03
4.764,0.14
4.766,0.265
4.768,0.365
4.77,0.36
4.772,0.325
4.774,0.135
4.776,-0.045
4.778,-0.075
4.78,-0.065
4.782,0.075
4.784,0.205
4.786,0.285
4.788,0.255
4.79,0.19
4.792,0.23
4.794,-0.02
4.796,-0.14
4.798,-0.1
4.8,-0.01
4.802,0.08
4.804,0.205
4.806,0.35
4.808,0.29
4.81,0.26
4.812,0.17
4.814,0.095
4.816,-0.045
4.818,-0.115
4.82,-0.055
4.822,0.06
4.824,0.185
4.826,0.25
4.828,0.23
4.83,0.24
4.832,0.27
4.834,0.105
4.836,0.005
4.838,0
4.84,-0.045
4.842,0.12
4.844,0.205
4.846,0.23
4.848,0.215
4.85,0.235
4.852,0.15
4.854,0.065
4.856,0.01
4.858,-0.02
4.86,-0.01
4.862,0.22
4.864,0.34
4.866,0.12
4.868,0.055
4.87,0.135
4.872,0.205
4.874,0.065
4.876,-0.135
4.878,-0.025
4.88,0.065
4.882,-0.005
4.884,0.155
4.886,0.265
4.888,0.36
4.89,0.305
4.892,0.33
4.894,0.07
4.896,-0.015
4.898,-0.02
4.9,-0.05
4.902,0.135
4.904,0.245
4.906,0.345
4.908,0.39
4.91,0.34
4.912,0.135
4.914,-0.03
4.916,0.09
4.918,-0.12
4.92,0.055
4.922,0.13
4.924,0.235
4.926,0.29
4.928,0.285
4.93,0.26
4.932,0.215
4.934,0.045
4.936,-0.065
4.938,-0.095
4.94,0.09
4.942,0.195
4.944,0.12
4.946,0.185
4.948,0.165
4.95,0.135
4.952,0.11
4.954,0.01
4.956,0.04
4.958,-0.075
4.96,0.035
4.962,0.12
4.964,0.235
4.966,0.275
4.968,0.235
4.97,0.23
4.972,0.14
4.974,0.055
4.976,0.05
4.978,-0.115
4.98,-0.195
4.982,0.16
4.984,0.215
4.986,0.275
4.988,0.265
4.99,0.195
4.992,0.155
4.994,-0.09
4.996,-0.08
4.998,-0.03
5,0.045
5.002,0.115
5.004,0.26
5.006,0.31
5.008,0.205
5.01,0.11
5.012,0.02
5.014,0.005
5.016,-0.045
5.018,-0.045
5.02,-0.04
5.022,0.155
5.024,0.26
5.026,0.29
5.028,0.33
5.03,0.29
5.032,0.1
5.034,0.015
5.036,-0.01
5.038,0.135
5.04,0.185
5.042,0.265
5.044,0.33
5.046,0.47
5.048,0.465
5.05,0.525
5.052,0.56
5.054,0.565
5.056,0.29
5.058,0.125
5.06,0.19
5.062,0.32
5.064,0.24
5.066,0.195
5.068,0.13
5.07,0.105
5.072,-0.15
5.074,-0.21
5.076,-0.295
5.078,-0.195
5.08,-0.05
5.082,-0.035
5.084,0
5.086,0
5.088,-0.09
5.09,-0.015
5.092,-0.11
5.094,-0.195
5.096,-0.32
5.098,-0.31
5.1,-0.125
5.102,0.155
5.104,0.335
5.106,0.28
5.108,0.26
5.11,0.21
5.112,0.045
5.114,-0.01
5.116,-0.045
5.118,-0.11
5.12,-0.055
5.122,0.14
5.124,0.205
5.126,0.225
5.128,0.3
5.13,0.245
5.132,0.07
5.134,-0.005
5.136,0.015
5.138,0.06
5.14,-0.04
5.142,0.17
5.144,0.305
5.146,0.385
5.148,0.23
5.15,0.185
5.152,0.045
5.154,0.005
5.156,-0.025
5.158,-0.03
5.16,0.015
5.162,0.15
5.164,0.27
5.166,0.425
5.168,0.35
5.17,0.105
5.172,-0.035
5.174,-0.145
5.176,-0.17
5.178,-0.005
5.18,0.085
5.182,0.25
5.184,0.295
5.186,0.37
5.188,0.425
5.19,0.345
5.192,0.045
5.194,-0.17
5.196,-0.08
5.198,0.01
5.2,0.135
5.202,0.27
5.204,0.355
5.206,0.43
5.208,0.27
5.21,0.165
5.212,0.065
5.214,-0.04
5.216,-0.085
5.218,0.015
5.22,0.17
5.222,0.3
5.224,0.34
5.226,0.29
5.228,0.37
5.23,0.3
5.232,0.18
5.234,0.205
5.236,0.255
5.238,0.325
5.24,0.115
5.242,0.255
5.244,0.425
5.246,0.42
5.248,0.32
5.25,0.215
5.252,0.12
5.254,0.395
5.256,0.375
5.258,0.205
5.26,0.18
5.262,0.395
5.264,0.59
5.266,0.58
5.268,0.645
5.27,0.505
5.272,0.325
5.274,0.245
5.276,0.255
5.278,0.335
5.28,0.47
5.282,0.605
5.284,0.57
5.286,0.585
5.288,0.54
5.29,0.47
5.292,0.385
5.294,0.32
5.296,0.225
5.298,0.255
5.3,0.435
5.302,0.515
5.304,0.475
5.306,0.505
5.308,0.525
5.31,0.475
5.312,0.2
5.314,0.055
5.316,0.09
5.318,0.145
5.32,0.335
5.322,0.445
5.324,0.38
5.326,0.325
5.328,0.305
5.33,0.245
5.332,0.16
5.334,0.18
5.336,0.105
5.338,0.075
5.34,0.19
5.342,0.3
5.344,0.27
5.346,0.295
5.348,0.395
5.35,0.17
5.352,0.02
5.354,0.005
5.356,-0.095
5.358,0.065
5.36,0.165
5.362,0.27
5.364,0.405
5.366,0.34
5.368,0.235
5.37,0.065
5.372,-0.02
5.374,-0.125
5.376,-0.12
5.378,-0.015
5.38,0.1
5.382,0.205
5.384,0.36
5.386,0.36
5.388,0.275
5.39,0.14
5.392,-0.065
5.394,-0.06
5.396,-0.04
5.398,0.11
5.4,0.255
5.402,0.365
5.404,0.335
5.406,0.18
5.408,0.12
5.41,0
5.412,0.04
5.414,-0.105
5.416,-0.09
5.418,-0.015
5.42,0.17
5.422,0.305
5.424,0.31
5.426,0.23
5.428,0.23
5.43,0.025
5.432,0.055
5.434,-0.035
5.436,0
5.438,0.01
5.44,0.22
5.442,0.265
5.444,0.27
5.446,0.2
5.448,0.125
5.45,0.075
5.452,0.03
5.454,0.075
5.456,0.04
5.458,0.11
5.46,0.315
5.462,0.255
5.464,0.335
5.466,0.25
5.468,0.21
5.47,0.065
5.472,-0.005
5.474,-0.02
5.476,0.055
5.478,0.02
5.48,0.175
5.482,0.285
5.484,0.285
5.486,0.255
5.488,0.03
5.49,-0.025
5.492,0.035
5.494,-0.025
5.496,0.005
5.498,0.065
5.5,0.245
5.502,0.405
5.504,0.315
5.506,0.21
5.508,0.13
5.51,-0.025
5.512,-0.11
5.514,-0.06
5.516,0.005
5.518,0.16
5.52,0.245
5.522,0.56
5.524,0.43
5.526,0.1
5.528,0.07
5.53,-0.005
5.532,-0.145
5.534,-0.015
5.536,-0.035
5.538,0.08
5.54,0.1
5.542,0.33
5.544,0.295
5.546,0.215
5.548,0.035
5.55,-0.045
5.552,-0.165
5.554,-0.05
5.556,0.08
5.558,0.15
5.56,0.165
5.562,0.225
5.564,0.24
5.566,0.23
5.568,0.12
5.57,-0.1
5.572,-0.17
5.574,-0.1
5.576,-0.015
5.578,0.14
5.58,0.17
5.582,0.185
5.584,0.235
5.586,0.2
5.588,0.21
5.59,0.035
5.592,-0.15
5.594,-0.075
5.596,0.05
5.598,0.135
5.6,0.21
5.602,0.23
5.604,0.25
5.606,0.09
5.608,-0.005
5.61,-0.045
5.612,-0.045
5.614,-0.11
5.616,-0.025
5.618,0.12
5.62,0.31
5.622,0.375
5.624,0.32
5.626,0.14
5.628,0
5.63,-0.015
5.632,-0.1
5.634,-0.105
5.636,0.025
5.638,0.13
5.64,0.26
5.642,0.205
5.644,0.165
5.646,0.31
5.648,0.135
5.65,0
5.652,-0.16
5.654,-0.105
5.656,-0.08
5.658,0.14
5.66,0.23
5.662,0.23
5.664,0.23
5.666,0.225
5.668,0.06
5.67,-0.11
5.672,-0.07
5.674,-0.045
5.676,-0.085
5.678,0.155
5.68,0.235
5.682,0.2
5.684,0.2
5.686,0.115
5.688,0.005
5.69,-0.145
5.692,-0.04
5.694,-0.135
5.696,-0.11
5.698,0.045
5.7,0.26
5.702,0.235
5.704,0.275
5.706,0.215
5.708,0.005
5.71,-0.075
5.712,-0.065
5.714,-0.035
5.716,-0.08
5.718,0.085
5.72,0.275
5.722,0.24
5.724,0.24
5.726,0.17
5.728,0.04
5.73,0.06
5.732,-0.035
5.734,-0.125
5.736,0.005
5.738,0.11
5.74,0.24
5.742,0.3
5.744,0.31
5.746,0.125
5.748,-0.075
5.75,-0.175
5.752,-0.06
5.754,0.045
5.756,0.085
5.758,0.2
5.76,0.285
5.762,0.275
5.764,0.24
5.766,0.14
5.768,0.055
5.77,0.045
5.772,0.135
5.774,0.175
5.776,0.315
5.778,0.58
5.78,0.69
5.782,0.72
5.784,0.54
5.786,0.385
5.788,0.235
5.79,0.13
5.792,0
5.794,-0.04
5.796,0.06
5.798,0.085
5.8,0.005
5.802,0.085
5.804,-0.045
5.806,-0.125
5.808,-0.205
5.81,-0.205
5.812,-0.3
5.814,-0.325
5.816,-0.22
5.818,0.01
5.82,0.11
5.822,0.165
5.824,0.075
5.826,-0.07
5.828,-0.075
5.83,-0.13
5.832,-0.175
5.834,-0.055
5.836,0.115
5.838,0.11
5.84,0.28
5.842,0.27
5.844,0.15
5.846,0.085
5.848,0.025
5.85,-0.07
5.852,-0.115
5.854,0.01
5.856,0.1
5.858,0.105
5.86,0.22
5.862,0.21
5.864,0.135
5.866,0.14
5.868,0.095
5.87,0.005
5.872,-0.095
5.874,-0.1
5.876,0.03
5.878,0.195
5.88,0.215
5.882,0.28
5.884,0.26
5.886,0.13
5.888,-0.03
5.89,-0.13
5.892,-0.18
5.894,-0.19
5.896,0.115
5.898,0.33
5.9,0.4
5.902,0.315
5.904,0.3
5.906,0.1
5.908,-0.015
5.91,-0.08
5.912,-0.06
5.914,-0.095
5.916,0.115
5.918,0.32
5.92,0.395
5.922,0.365
5.924,0.275
5.926,0.095
5.928,-0.005
5.93,-0.095
5.932,-0.07
5.934,-0.005
5.936,0.245
5.938,0.345
5.94,0.36
5.942,0.235
5.944,0.19
5.946,0.205
5.948,-0.04
5.95,-0.08
5.952,-0.025
5.954,0.105
5.956,0.295
5.958,0.385
5.96,0.41
5.962,0.435
5.964,0.275
5.966,0.2
5.968,0.115
5.97,0.01
5.972,0.08
5.974,0.165
5.976,0.355
5.978,0.425
5.98,0.5
5.982,0.505
5.984,0.36
5.986,0.245
5.988,0.145
5.99,0.185
5.992,0.305
5.994,0.345
5.996,0.47
5.998,0.57
6,0.675
6.002,0.62
6.004,0.52
6.006,0.47
6.008,0.295
6.01,0.21
6.012,0.305
6.014,0.335
6.016,0.445
6.018,0.575
6.02,0.585
6.022,0.615
6.024,0.7
6.026,0.455
6.028,0.245
6.03,0.275
6.032,0.28
6.034,0.29
6.036,0.555
6.038,0.695
6.04,0.35
6.042,0.51
6.044,0.545
6.046,0.24
6.048,0.08
6.05,-0.03
6.052,0.08
6.054,0.175
6.056,0.42
6.058,0.44
6.06,0.385
6.062,0.395
6.064,0.315
6.066,0.085
6.068,-0.02
6.07,-0.045
6.072,-0.005
6.074,0.09
6.076,0.215
6.078,0.36
6.08,0.29
6.082,0.225
6.084,0.07
6.086,-0.02
6.088,-0.04
6.09,-0.045
6.092,0.025
6.094,0.08
6.096,0.23
6.098,0.305
6.1,0.28
6.102,0.205
6.104,0.18
6.106,0.055
6.108,-0.06
6.11,-0.04
6.112,-0.045
6.114,0.08
6.116,0.265
6.118,0.28
6.12,0.15
6.122,0.215
6.124,0.155
6.126,-0.01
6.128,-0.09
6.13,-0.02
6.132,0.01
6.134,-0.02
6.136,0.145
6.138,0.31
6.14,0.29
6.142,0.19
6.144,0.11
6.146,-0.005
6.148,-0.075
6.15,-0.085
6.152,0.07
6.154,0.135
6.156,0.27
6.158,0.195
6.16,0.255
6.162,0.28
6.164,0.16
6.166,0.005
6.168,-0.085
6.17,-0.12
6.172,-0.01
6.174,0.145
6.176,0.335
6.178,0.295
6.18,0.205
6.182,0.255
6.184,0.145
6.186,0
6.188,-0.055
6.19,-0.045
6.192,-0.03
6.194,0.075
6.196,0.325
6.198,0.35
6.2,0.155
6.202,0.11
6.204,0.045
6.206,-0.1
6.208,-0.015
6.21,-0.035
6.212,0.065
6.214,0.18
6.216,0.275
6.218,0.255
6.22,0.205
6.222,0.16
6.224,0.085
6.226,-0.045
6.228,-0.03
6.23,0.06
6.232,0.115
6.234,0.205
6.236,0.29
6.238,0.38
6.24,0.315
6.242,0.09
6.244,0.105
6.246,0.135
6.248,-0.135
6.25,-0.085
6.252,0.02
6.254,0.045
6.256,0.28
6.258,0.28
6.26,0.195
6.262,0.16
6.264,0.09
6.266,0.015
6.268,-0.16
6.27,-0.145
6.272,-0.045
6.274,0.155
6.276,0.155
6.278,0.24
6.28,0.35
6.282,0.15
6.284,0.04
6.286,-0.045
6.288,-0.085
6.29,0.04
6.292,0.03
6.294,0.22
6.296,0.27
6.298,0.235
6.3,0.245
6.302,0.25
6.304,0.05
6.306,-0.08
6.308,-0.075
6.31,0.045
6.312,0.045
6.314,0.18
6.316,0.155
6.318,0.24
6.32,0.22
6.322,0.22
6.324,0.08
6.326,-0.045
6.328,-0.105
6.33,-0.09
6.332,-0.015
6.334,0.135
6.336,0.195
6.338,0.34
6.34,0.215
6.342,0.21
6.344,0.115
6.346,-0.015
6.348,-0.065
6.35,-0.015
6.352,-0.025
6.354,0.17
6.356,0.285
6.358,0.335
6.36,0.13
6.362,0.11
6.364,-0.08
6.366,-0.03
6.368,-0.095
6.37,-0.07
6.372,-0.04
6.374,0.29
6.376,0.355
6.378,0.255
6.38,0.105
6.382,0.085
6.384,-0.045
6.386,-0.13
6.388,-0.09
6.39,-0.025
6.392,0.085
6.394,0.17
6.396,0.245
6.398,0.33
6.4,0.275
6.402,0.22
6.404,-0.055
6.406,-0.275
6.408,-0.17
6.41,0.005
6.412,0.035
6.414,0.17
6.416,0.33
6.418,0.175
6.42,0.135
6.422,0.075
6.424,-0.035
6.426,-0.105
6.428,0.015
6.43,-0.045
6.432,0.105
6.434,0.145
6.436,0.195
6.438,0.31
6.44,0.225
6.442,0.145
6.444,0.035
6.446,-0.04
6.448,-0.175
6.45,-0.18
6.452,0.025
6.454,0.3
6.456,0.39
6.458,0.22
6.46,0.09
6.462,0.005
6.464,0.1
6.466,0.02
6.468,-0.055
6.47,-0.125
6.472,0.07
6.474,0.21
6.476,0.24
6.478,0.12
6.48,0.115
6.482,0.075
6.484,-0.055
6.486,-0.165
6.488,-0.005
6.49,-0.05
6.492,0.155
6.494,0.235
6.496,0.23
6.498,0.145
6.5,0.11
6.502,0.01
6.504,-0.1
6.506,-0.105
6.508,-0.11
6.51,-0.07
6.512,0.055
6.514,0.165
6.516,0.3
6.518,0.355
6.52,0.25
6.522,0.19
6.524,-0.02
6.526,-0.095
6.528,0
6.53,-0.07
6.532,0.045
6.534,0.105
6.536,0.305
6.538,0.235
6.54,0.115
6.542,0.015
6.544,-0.04
6.546,-0.155
6.548,-0.065
6.55,0.02
6.552,0.17
6.554,0.225
6.556,0.235
6.558,0.31
6.56,0.285
6.562,0.205
6.564,0.135
6.566,-0.035
6.568,0.06
6.57,0
6.572,0.09
6.574,0.25
6.576,0.305
6.578,0.28
6.58,0.17
6.582,0.05
6.584,-0.1
6.586,-0.1
6.588,-0.045
6.59,0.085
6.592,0.25
6.594,0.33
6.596,0.3
6.598,0.195
6.6,0.25
6.602,0.2
6.604,-0.015
6.606,-0.115
6.608,-0.08
6.61,-0.035
6.612,0.095
6.614,0.205
6.616,0.2
6.618,0.105
6.62,0.105
6.622,-0.065
6.624,-0.135
6.626,-0.165
6.628,-0.15
6.63,0.07
6.632,0.145
6.634,0.21
6.636,0.225
6.638,0.245
6.64,0.155
6.642,-0.025
6.644,-0.1
6.646,-0.21
6.648,-0.11
6.65,0.005
6.652,0.19
6.654,0.3
6.656,0.245
6.658,0.165
6.66,0.15
6.662,-0.015
6.664,-0.065
6.666,-0.175
6.668,-0.085
6.67,-0.015
6.672,0.255
6.674,0.19
6.676,0.235
6.678,0.2
6.68,0.125
6.682,-0.02
6.684,-0.125
6.686,-0.16
6.688,-0.09
6.69,0.05
6.692,0.23
6.694,0.14
6.696,0.17
6.698,0.205
6.7,0.13
6.702,-0.04
6.704,-0.005
6.706,-0.01
6.708,0.15
6.71,0.44
6.712,0.395
6.714,0.54
6.716,0.585
6.718,0.645
6.72,0.525
6.722,0.435
6.724,0.29
6.726,0.24
6.728,0.28
6.73,0.215
6.732,0.27
6.734,0.27
6.736,0.17
6.738,0.045
6.74,-0.105
6.742,-0.245
6.744,-0.28
6.746,-0.29
6.748,-0.24
6.75,-0.16
6.752,0.085
6.754,0.07
6.756,0.07
6.758,0.015
6.76,-0.005
6.762,-0.155
6.764,-0.255
6.766,-0.185
6.768,-0.08
6.77,0.015
6.772,0.17
6.774,0.26
6.776,0.29
6.778,0.145
6.78,0.085
6.782,-0.065
6.784,-0.12
6.786,-0.085
6.788,-0.11
6.79,-0.015
6.792,0.095
6.794,0.19
6.796,0.285
6.798,0.19
6.8,0.1
6.802,-0.065
6.804,-0.02
6.806,-0.075
6.808,-0.025
6.81,0.085
6.812,0.205
6.814,0.25
6.816,0.185
6.818,0.13
6.82,0.085
6.822,-0.05
6.824,-0.055
6.826,-0.05
6.828,-0.065
6.83,0.14
6.832,0.235
6.834,0.295
6.836,0.185
6.838,0.135
6.84,-0.03
6.842,-0.145
6.844,-0.135
6.846,-0.11
6.848,-0.075
6.85,0.185
6.852,0.315
6.854,0.295
6.856,0.29
6.858,0.135
6.86,-0.08
6.862,-0.09
6.864,-0.11
6.866,-0.045
6.868,0.065
6.87,0.21
6.872,0.18
6.874,0.27
6.876,0.285
6.878,0.185
6.88,0.1
6.882,0.08
6.884,-0.135
6.886,-0.135
6.888,0.105
6.89,0.23
6.892,0.32
6.894,0.375
6.896,0.26
6.898,0.17
6.9,0.17
6.902,0.11
6.904,-0.01
6.906,0.115
6.908,0.11
6.91,0.295
6.912,0.44
6.914,0.51
6.916,0.455
6.918,0.425
6.92,0.13
6.922,0.09
6.924,0.125
6.926,0.21
6.928,0.155
6.93,0.375
6.932,0.475
6.934,0.57
6.936,0.555
6.938,0.505
6.94,0.315
6.942,0.295
6.944,0.265
6.946,0.26
6.948,0.415
6.95,0.47
6.952,0.525
6.954,0.595
6.956,0.525
6.958,0.48
6.96,0.36
6.962,0.245
6.964,0.175
6.966,0.23
6.968,0.565
6.97,0.585
6.972,0.61
6.974,0.495
6.976,0.51
6.978,0.415
6.98,0.275
6.982,0.255
6.984,0.235
6.986,0.26
6.988,0.325
6.99,0.425
6.992,0.495
6.994,0.455
6.996,0.345
6.998,0.23
7,0.015
7.002,-0.035
7.004,0.025
7.006,0.08
7.008,0.17
7.01,0.245
7.012,0.3
7.014,0.295
7.016,0.19
7.018,0.13
7.02,-0.015
7.022,0.005
7.024,-0.045
7.026,0.03
7.028,0.09
7.03,0.215
7.032,0.31
7.034,0.225
7.036,0.165
7.038,0.145
7.04,-0.03
7.042,0
7.044,-0.075
7.046,-0.14
7.048,0.03
7.05,0.175
7.052,0.28
7.054,0.18
7.056,0.28
7.058,0.2
7.06,-0.115
7.062,-0.22
7.064,-0.125
7.066,-0.075
7.068,0.1
7.07,0.205
7.072,0.265
7.074,0.22
7.076,0.16
7.078,0.085
7.08,0.17
7.082,0.06
7.084,-0.06
7.086,-0.12
7.088,0.07
7.09,0.11
7.092,0.18
7.094,0.255
7.096,0.265
7.098,0.035
7.1,-0.1
7.102,-0.185
7.104,-0.155
7.106,-0.045
7.108,0.23
7.11,0.21
7.112,0.165
7.114,0.305
7.116,0.25
7.118,0.05
7.12,-0.05
7.122,-0.165
7.124,-0.16
7.126,-0.09
7.128,0.12
7.13,0.2
7.132,0.24
7.134,0.285
7.136,0.145
7.138,-0.05
7.14,-0.105
7.142,-0.065
7.144,0.065
7.146,-0.085
7.148,0.04
7.15,0.225
7.152,0.255
7.154,0.195
7.156,0.18
7.158,-0.015
7.16,-0.075
7.162,-0.075
7.164,-0.09
7.166,-0.015
7.168,-0.015
7.17,0.155
7.172,0.25
7.174,0.29
7.176,0.18
7.178,-0.025
7.18,-0.16
7.182,-0.26
7.184,-0.175
7.186,-0.01
7.188,0.205
7.19,0.155
7.192,0.22
7.194,0.255
7.196,0.155
7.198,-0.01
7.2,-0.125
7.202,-0.17
7.204,-0.09
7.206,-0.115
7.208,0.145
7.21,0.16
7.212,0.29
7.214,0.14
7.216,0.24
7.218,0.02
7.22,-0.225
7.222,-0.135
7.224,-0.115
7.226,-0.115
7.228,0.14
7.23,0.25
7.232,0.19
7.234,0.16
7.236,0.125
7.238,-0.065
7.24,-0.11
7.242,-0.21
7.244,-0.11
7.246,-0.02
7.248,0.075
7.25,0.14
7.252,0.195
7.254,0.105
7.256,0.005
7.258,-0.07
7.26,-0.155
7.262,-0.2
7.264,-0.115
7.266,-0.07
7.268,0.085
7.27,0.23
7.272,0.19
7.274,0.16
7.276,0.05
7.278,-0.06
7.28,-0.12
7.282,-0.11
7.284,-0.06
7.286,-0.09
7.288,0.08
7.29,0.18
7.292,0.24
7.294,0.135
7.296,-0.035
7.298,-0.11
7.3,-0.16
7.302,-0.115
7.304,-0.135
7.306,-0.055
7.308,0.125
7.31,0.215
7.312,0.26
7.314,0.17
7.316,-0.09
7.318,-0.11
7.32,-0.2
7.322,-0.165
7.324,-0.075
7.326,0.02
7.328,0.18
7.33,0.21
7.332,0.17
7.334,0.105
7.336,0.115
7.338,-0.04
7.34,-0.245
7.342,-0.22
7.344,-0.09
7.346,0.04
7.348,0.07
7.35,0.155
7.352,0.075
7.354,0.035
7.356,-0.035
7.358,-0.115
7.36,-0.155
7.362,-0.12
7.364,-0.085
7.366,0.02
7.368,0.09
7.37,0.145
7.372,0.19
7.374,0.185
7.376,-0.035
7.378,-0.205
7.38,-0.235
7.382,-0.155
7.384,-0.16
7.386,0.065
7.388,0.145
7.39,0.155
7.392,0.06
7.394,0.04
7.396,-0.11
7.398,-0.22
7.4,-0.185
7.402,-0.225
7.404,-0.175
7.406,0.015
7.408,0.04
7.41,0.11
7.412,0.16
7.414,0.185
7.416,-0.01
7.418,-0.125
7.42,-0.14
7.422,-0.185
7.424,-0.195
7.426,-0.005
7.428,0.205
7.43,0.05
7.432,0.095
7.434,0.035
7.436,-0.145
7.438,-0.185
7.44,-0.295
7.442,-0.23
7.444,-0.13
7.446,0.025
7.448,0.085
7.45,0.17
7.452,0.26
7.454,0
7.456,-0.115
7.458,-0.13
7.46,-0.235
7.462,-0.295
7.464,-0.2
7.466,0.03
7.468,0.065
7.47,0.13
7.472,0.08
7.474,0.02
7.476,-0.165
7.478,-0.27
7.48,-0.255
7.482,-0.235
7.484,-0.24
7.486,-0.02
7.488,0.125
7.49,0.215
7.492,0.185
7.494,-0.055
7.496,-0.095
7.498,-0.095
7.5,-0.355
7.502,-0.29
7.504,-0.145
7.506,0.01
7.508,0.105
7.51,0.1
7.512,0.035
7.514,0.015
7.516,-0.2
7.518,-0.27
7.52,-0.27
7.522,-0.2
7.524,-0.13
7.526,0.095
7.528,0.07
7.53,-0.02
7.532,0.035
7.534,-0.01
7.536,-0.075
7.538,-0.225
7.54,-0.155
7.542,-0.26
7.544,-0.1
7.546,-0.005
7.548,0.095
7.55,0.11
7.552,0.02
7.554,-0.02
7.556,-0.26
7.558,-0.07
7.56,-0.22
7.562,-0.3
7.564,-0.28
7.566,-0.07
7.568,0.13
7.57,0.14
7.572,0.295
7.574,-0.065
7.576,-0.175
7.578,-0.29
7.58,-0.345
7.582,-0.18
7.584,-0.085
7.586,0.045
7.588,0.1
7.59,0.12
7.592,0.02
7.594,-0.1
7.596,-0.305
7.598,-0.305
7.6,-0.31
7.602,-0.305
7.604,-0.255
7.606,0.115
7.608,0.245
7.61,0.075
7.612,0
7.614,-0.005
7.616,-0.2
7.618,-0.255
7.62,-0.23
7.622,-0.17
7.624,-0.02
7.626,0.08
7.628,0.06
7.63,0.09
7.632,0.005
7.634,-0.095
7.636,-0.205
7.638,-0.155
7.64,-0.07
7.642,-0.055
7.644,0.015
7.646,0.1
7.648,0.215
7.65,0.185
7.652,0.08
7.654,0.025
7.656,-0.14
7.658,-0.23
7.66,-0.3
7.662,-0.155
7.664,0.025
7.666,0.135
7.668,0.17
7.67,0.185
7.672,0.005
7.674,-0.125
7.676,-0.16
7.678,-0.22
7.68,-0.23
7.682,-0.215
7.684,-0.245
7.686,0.055
7.688,0.21
7.69,0.125
7.692,0.135
7.694,-0.15
7.696,-0.325
7.698,-0.335
7.7,-0.31
7.702,-0.155
7.704,-0.02
7.706,-0.01
7.708,-0.02
7.71,0.03
7.712,-0.035
7.714,-0.215
7.716,-0.18
7.718,-0.15
7.72,-0.175
7.722,-0.215
7.724,-0.19
7.726,0.015
7.728,0.055
7.73,0.035
7.732,-0.095
7.734,-0.2
7.736,-0.255
7.738,-0.28
7.74,-0.275
7.742,-0.205
7.744,-0.14
7.746,0.015
7.748,0.155
7.75,0.085
7.752,0.055
7.754,-0.16
7.756,-0.215
7.758,-0.36
7.76,-0.345
7.762,-0.265
7.764,-0.11
7.766,-0.03
7.768,-0.02
7.77,0.075
7.772,-0.045
7.774,-0.105
7.776,-0.285
7.778,-0.37
7.78,-0.275
7.782,-0.195
7.784,0.075
7.786,0.205
7.788,0.15
7.79,0.31
7.792,0.3
7.794,0.12
7.796,0.21
7.798,0.185
7.8,0.23
7.802,0.295
7.804,0.24
7.806,0.35
7.808,0.255
7.81,0.12
7.812,0
7.814,-0.19
7.816,-0.29
7.818,-0.345
7.82,-0.35
7.822,-0.31
7.824,-0.315
7.826,-0.245
7.828,-0.25
7.83,-0.21
7.832,-0.34
7.834,-0.355
7.836,-0.38
7.838,-0.41
7.84,-0.385
7.842,-0.23
7.844,-0.13
7.846,-0.005
7.848,-0.025
7.85,-0.04
7.852,-0.025
7.854,-0.21
7.856,-0.315
7.858,-0.375
7.86,-0.21
7.862,-0.205
7.864,-0.205
7.866,-0.08
7.868,0.05
7.87,0.065
7.872,-0.035
7.874,-0.23
7.876,-0.335
7.878,-0.33
7.88,-0.3
7.882,-0.16
7.884,-0.005
7.886,0.015
7.888,0.11
7.89,-0.015
7.892,-0.1
7.894,-0.205
7.896,-0.31
7.898,-0.285
7.9,-0.23
7.902,-0.105
7.904,0.055
7.906,0.01
7.908,-0.12
7.91,-0.035
7.912,-0.13
7.914,-0.245
7.916,-0.315
7.918,-0.21
7.92,-0.085
7.922,-0.165
7.924,-0.05
7.926,0.1
7.928,0.04
7.93,-0.01
7.932,-0.08
7.934,-0.24
7.936,-0.295
7.938,-0.305
7.94,-0.255
7.942,-0.095
7.944,0.045
7.946,0.09
7.948,0.145
7.95,0.055
7.952,-0.12
7.954,-0.275
7.956,-0.205
7.958,-0.175
7.96,-0.235
7.962,-0.025
7.964,0.145
7.966,0.21
7.968,0.205
7.97,0.06
7.972,-0.155
7.974,-0.195
7.976,-0.12
7.978,-0.125
7.98,-0.2
7.982,-0.045
7.984,0.09
7.986,0.195
7.988,0.19
7.99,0.185
7.992,0.035
7.994,-0.09
7.996,-0.06
7.998,0.01
8,-0.035
8.002,0.115
8.004,0.2
8.006,0.25
8.008,0.375
8.01,0.275
8.012,0.17
8.014,-0.01
8.016,-0.015
8.018,0.02
8.02,0.075
8.022,0.28
8.024,0.495
8.026,0.35
8.028,0.3
8.03,0.455
8.032,0.245
8.034,0.19
8.036,-0.015
8.038,0.09
8.04,0.205
8.042,0.275
8.044,0.335
8.046,0.41
8.048,0.43
8.05,0.345
8.052,0.33
8.054,0.11
8.056,-0.1
8.058,0.02
8.06,0.225
8.062,0.185
8.064,0.29
8.066,0.36
8.068,0.225
8.07,0.205
8.072,0.135
8.074,-0.065
8.076,-0.165
8.078,-0.14
8.08,-0.1
8.082,0.135
8.084,0.25
8.086,0.28
8.088,0.065
8.09,0.055
8.092,-0.11
8.094,-0.245
8.096,-0.305
8.098,-0.16
8.1,-0.045
8.102,0.055
8.104,0.065
8.106,0.125
8.108,0.085
8.11,-0.025
8.112,-0.19
8.114,-0.25
8.116,-0.355
8.118,-0.275
8.12,-0.2
8.122,-0.145
8.124,-0.035
8.126,0.22
8.128,0.02
8.13,-0.155
8.132,-0.26
8.134,-0.345
8.136,-0.3
8.138,-0.215
8.14,-0.3
8.142,-0.22
8.144,-0.09
8.146,0.025
8.148,0.065
8.15,0.125
8.152,-0.195
8.154,-0.23
8.156,-0.34
8.158,-0.27
8.16,-0.07
8.162,-0.005
8.164,0.015
8.166,0.015
8.168,-0.07
8.17,-0.045
8.172,-0.28
8.174,-0.315
8.176,-0.26
8.178,-0.235
8.18,-0.25
8.182,-0.1
8.184,0.055
8.186,0.11
8.188,-0.05
8.19,-0.155
8.192,-0.265
8.194,-0.31
8.196,-0.36
8.198,-0.23
8.2,-0.21
8.202,-0.015
8.204,0.04
8.206,-0.065
8.208,-0.01
8.21,-0.14
8.212,-0.295
8.214,-0.335
8.216,-0.315
8.218,-0.275
8.22,-0.17
8.222,-0.055
8.224,0.01
8.226,0.005
8.228,0.08
8.23,-0.13
8.232,-0.325
8.234,-0.285
8.236,-0.29
8.238,-0.265
8.24,-0.195
8.242,-0.085
8.244,-0.055
8.246,-0.05
8.248,-0.02
8.25,-0.125
8.252,-0.375
8.254,-0.415
8.256,-0.255
8.258,-0.255
8.26,-0.165
8.262,-0.095
8.264,0.03
8.266,0.035
8.268,-0.065
8.27,-0.21
8.272,-0.235
8.274,-0.385
8.276,-0.51
8.278,-0.38
8.28,-0.105
8.282,-0.02
8.284,-0.015
8.286,-0.035
8.288,-0.105
8.29,-0.205
8.292,-0.235
8.294,-0.33
8.296,-0.405
8.298,-0.36
8.3,-0.17
8.302,0.035
8.304,0.005
8.306,-0.08
8.308,-0.01
8.31,-0.265
8.312,-0.3
8.314,-0.315
8.316,-0.36
8.318,-0.285
8.32,-0.13
8.322,-0.115
8.324,-0.105
8.326,-0.085
8.328,-0.07
8.33,-0.26
8.332,-0.37
8.334,-0.425
8.336,-0.325
8.338,-0.31
8.34,-0.165
8.342,-0.11
8.344,-0.02
8.346,-0.03
8.348,-0.095
8.35,-0.265
8.352,-0.36
8.354,-0.37
8.356,-0.44
8.358,-0.335
8.36,-0.185
8.362,-0.05
8.364,-0.005
8.366,-0.04
8.368,-0.14
8.37,-0.305
8.372,-0.26
8.374,-0.39
8.376,-0.37
8.378,-0.31
8.38,-0.21
8.382,-0.09
8.384,-0.145
8.386,-0.09
8.388,-0.19
8.39,-0.24
8.392,-0.36
8.394,-0.355
8.396,-0.325
8.398,-0.195
8.4,-0.065
8.402,-0.015
8.404,-0.03
8.406,-0.105
8.408,-0.18
8.41,-0.145
8.412,-0.39
8.414,-0.465
8.416,-0.395
8.418,-0.375
8.42,-0.175
8.422,-0.015
8.424,-0.04
8.426,-0.11
8.428,-0.26
8.43,-0.335
8.432,-0.37
8.434,-0.295
8.436,-0.205
8.438,-0.29
8.44,-0.14
8.442,-0.08
8.444,-0.04
8.446,-0.085
8.448,-0.31
8.45,-0.38
8.452,-0.425
8.454,-0.405
8.456,-0.335
8.458,-0.34
8.46,-0.115
8.462,-0.005
8.464,0.02
8.466,0.015
8.468,-0.065
8.47,-0.315
8.472,-0.4
8.474,-0.425
8.476,-0.41
8.478,-0.3
8.48,-0.195
8.482,0.055
8.484,-0.03
8.486,-0.205
8.488,-0.305
8.49,-0.345
8.492,-0.53
8.494,-0.37
8.496,-0.375
8.498,-0.205
8.5,-0.065
8.502,-0.09
8.504,-0.14
8.506,-0.115
8.508,-0.065
8.51,-0.235
8.512,-0.46
8.514,-0.45
8.516,-0.38
8.518,-0.245
8.52,-0.14
8.522,-0.055
8.524,-0.17
8.526,-0.17
8.528,-0.275
8.53,-0.385
8.532,-0.43
8.534,-0.385
8.536,-0.4
8.538,-0.35
8.54,-0.165
8.542,0.04
8.544,0
8.546,-0.005
8.548,-0.275
8.55,-0.3
8.552,-0.365
8.554,-0.455
8.556,-0.355
8.558,-0.19
8.56,-0.12
8.562,-0.095
8.564,-0.065
8.566,-0.205
8.568,-0.225
8.57,-0.26
8.572,-0.435
8.574,-0.435
8.576,-0.32
8.578,-0.31
8.58,-0.18
8.582,-0.03
8.584,0.005
8.586,-0.04
8.588,-0.09
8.59,-0.395
8.592,-0.51
8.594,-0.355
8.596,-0.37
8.598,-0.315
8.6,-0.195
8.602,-0.09
8.604,-0.1
8.606,-0.09
8.608,-0.21
8.61,-0.385
8.612,-0.42
8.614,-0.35
8.616,-0.285
8.618,-0.23
8.62,-0.15
8.622,0.02
8.624,-0.03
8.626,-0.16
8.628,-0.32
8.63,-0.375
8.632,-0.27
8.634,-0.42
8.636,-0.37
8.638,-0.255
8.64,-0.12
8.642,-0.115
8.644,-0.09
8.646,-0.145
8.648,-0.285
8.65,-0.385
8.652,-0.425
8.654,-0.31
8.656,-0.2
8.658,-0.13
8.66,-0.13
8.662,0.07
8.664,-0.085
8.666,-0.245
8.668,-0.325
8.67,-0.365
8.672,-0.365
8.674,-0.325
8.676,-0.275
8.678,-0.235
8.68,-0.13
8.682,-0.09
8.684,-0.125
8.686,-0.15
8.688,-0.275
8.69,-0.29
8.692,-0.385
8.694,-0.365
8.696,-0.255
8.698,-0.2
8.7,-0.105
8.702,0.07
8.704,-0.025
8.706,-0.165
8.708,-0.165
8.71,-0.36
8.712,-0.415
8.714,-0.335
8.716,-0.32
8.718,-0.05
8.72,0.015
8.722,0.045
8.724,0.07
8.726,-0.04
8.728,-0.345
8.73,-0.335
8.732,-0.26
8.734,-0.22
8.736,-0.215
8.738,-0.155
8.74,0.04
8.742,0.025
8.744,-0.105
8.746,-0.165
8.748,-0.31
8.75,-0.45
8.752,-0.43
8.754,-0.28
8.756,-0.26
8.758,-0.135
8.76,-0.055
8.762,0.045
8.764,-0.07
8.766,-0.235
8.768,-0.415
8.77,-0.35
8.772,-0.315
8.774,-0.34
8.776,-0.375
8.778,-0.185
8.78,-0.05
8.782,-0.05
8.784,-0.17
8.786,-0.22
8.788,-0.25
8.79,-0.4
8.792,-0.48
8.794,-0.26
8.796,-0.245
8.798,-0.185
8.8,-0.1
8.802,-0.16
8.804,-0.165
8.806,-0.2
8.808,-0.29
8.81,-0.38
8.812,-0.405
8.814,-0.395
8.816,-0.3
8.818,-0.135
8.82,-0.035
8.822,-0.125
8.824,-0.15
8.826,-0.15
8.828,-0.385
8.83,-0.335
8.832,-0.43
8.834,-0.35
8.836,-0.275
8.838,-0.12
8.84,-0.09
8.842,-0.095
8.844,0.015
8.846,-0.225
8.848,-0.385
8.85,-0.36
8.852,-0.405
8.854,-0.3
8.856,-0.09
8.858,0.025
8.86,0.125
8.862,0.21
8.864,0.21
8.866,0.175
8.868,0.185
8.87,0.165
8.872,0.145
8.874,0.075
8.876,0.13
8.878,0.205
8.88,0.095
8.882,-0.04
8.884,-0.155
8.886,-0.275
8.888,-0.42
8.89,-0.545
8.892,-0.54
8.894,-0.58
8.896,-0.405
8.898,-0.325
8.9,-0.245
8.902,-0.28
8.904,-0.365
8.906,-0.435
8.908,-0.515
8.91,-0.48
8.912,-0.39
8.914,-0.295
8.916,-0.205
8.918,-0.07
8.92,-0.065
8.922,-0.175
8.924,-0.2
8.926,-0.21
8.928,-0.36
8.93,-0.43
8.932,-0.36
8.934,-0.3
8.936,-0.245
8.938,-0.105
8.94,-0.015
8.942,-0.07
8.944,-0.14
8.946,-0.34
8.948,-0.42
8.95,-0.41
8.952,-0.255
8.954,-0.215
8.956,-0.085
8.958,-0.06
8.96,-0.02
8.962,-0.07
8.964,-0.095
8.966,-0.23
8.968,-0.3
8.97,-0.39
8.972,-0.335
8.974,-0.125
8.976,-0.005
8.978,0.07
8.98,0.14
8.982,-0.06
8.984,-0.03
8.986,-0.105
8.988,-0.105
8.99,-0.04
8.992,0.025
8.994,0.02
8.996,0.075
8.998,0.08
9,0.09
9.002,-0.01
9.004,-0.005
9.006,-0.055
9.008,-0.07
9.01,-0.065
9.012,0
9.014,0.045
9.016,0.075
9.018,0.075
9.02,0.05
9.022,0.08
9.024,0.03
9.026,-0.155
9.028,-0.275
9.03,-0.235
9.032,-0.12
9.034,-0.095
9.036,0.185
9.038,0.2
9.04,0.15
9.042,0.065
9.044,0.06
9.046,-0.055
9.048,-0.105
9.05,-0.205
9.052,-0.16
9.054,-0.04
9.056,0.12
9.058,0.18
9.06,0.23
9.062,0.315
9.064,0.105
9.066,-0.05
9.068,-0.1
9.07,0.085
9.072,0.04
9.074,0.165
9.076,0.205
9.078,0.385
9.08,0.53
9.082,0.37
9.084,0.25
9.086,0.095
9.088,0.1
9.09,0.05
9.092,0.145
9.094,0.29
9.096,0.5
9.098,0.425
9.1,0.475
9.102,0.475
9.104,0.215
9.106,0.14
9.108,0.19
9.11,0.13
9.112,0.16
9.114,0.355
9.116,0.435
9.118,0.48
9.12,0.41
9.122,0.495
9.124,0.35
9.126,0.045
9.128,0.115
9.13,0.095
9.132,0.13
9.134,0.205
9.136,0.405
9.138,0.34
9.14,0.33
9.142,0.3
9.144,0.125
9.146,-0.04
9.148,-0.075
9.15,-0.075
9.152,-0.01
9.154,0.115
9.156,0.235
9.158,0.235
9.16,0.255
9.162,0.23
9.164,0.03
9.166,-0.03
9.168,-0.18
9.17,-0.215
9.172,-0.2
9.174,-0.03
9.176,0.06
9.178,0.155
9.18,0.08
9.182,0.045
9.184,0.045
9.186,-0.2
9.188,-0.245
9.19,-0.33
9.192,-0.15
9.194,-0.015
9.196,0.11
9.198,0.195
9.2,0.075
9.202,0
9.204,-0.145
9.206,-0.175
9.208,-0.23
9.21,-0.3
9.212,-0.08
9.214,-0.045
9.216,-0.03
9.218,-0.005
9.22,0.085
9.222,0.015
9.224,-0.125
9.226,-0.25
9.228,-0.235
9.23,-0.265
9.232,-0.205
9.234,-0.015
9.236,0.05
9.238,0.12
9.24,0.06
9.242,0.11
9.244,-0.035
9.246,-0.22
9.248,-0.26
9.25,-0.17
9.252,-0.265
9.254,-0.03
9.256,0.03
9.258,0.135
9.26,0.085
9.262,-0.08
9.264,-0.21
9.266,-0.18
9.268,-0.185
9.27,-0.19
9.272,-0.1
9.274,-0.03
9.276,0.16
9.278,0.145
9.28,-0.015
9.282,0.02
9.284,-0.125
9.286,-0.235
9.288,-0.31
9.29,-0.26
9.292,-0.165
9.294,-0.035
9.296,0.105
9.298,0.18
9.3,0.08
9.302,0.01
9.304,-0.105
9.306,-0.14
9.308,-0.19
9.31,-0.165
9.312,-0.125
9.314,-0.06
9.316,0.04
9.318,0.05
9.32,0.025
9.322,0.01
9.324,-0.12
9.326,-0.25
9.328,-0.26
9.33,-0.25
9.332,-0.19
9.334,0.08
9.336,0.115
9.338,0.17
9.34,0.07
9.342,0.005
9.344,-0.12
9.346,-0.26
9.348,-0.35
9.35,-0.205
9.352,-0.27
9.354,-0.04
9.356,0.075
9.358,0.115
9.36,0.06
9.362,-0.085
9.364,-0.235
9.366,-0.185
9.368,-0.165
9.37,-0.155
9.372,-0.145
9.374,0.005
9.376,0.035
9.378,0.035
9.38,0.015
9.382,-0.005
9.384,-0.22
9.386,-0.285
9.388,-0.305
9.39,-0.215
9.392,-0.17
9.394,0.035
9.396,0.075
9.398,0.04
9.4,0.03
9.402,-0.11
9.404,-0.235
9.406,-0.285
9.408,-0.235
9.41,-0.2
9.412,-0.105
9.414,0
9.416,0.06
9.418,0.165
9.42,0.075
9.422,-0.08
9.424,-0.21
9.426,-0.37
9.428,-0.305
9.43,-0.25
9.432,-0.07
9.434,-0.025
9.436,0.025
9.438,0.17
9.44,0.03
9.442,-0.115
9.444,-0.145
9.446,-0.23
9.448,-0.25
9.45,-0.205
9.452,-0.135
9.454,0.06
9.456,-0.02
9.458,0.11
9.46,0.01
9.462,-0.125
9.464,-0.22
9.466,-0.265
9.468,-0.29
9.47,-0.19
9.472,-0.135
9.474,0.105
9.476,0.115
9.478,0.1
9.48,-0.04
9.482,-0.165
9.484,-0.195
9.486,-0.205
9.488,-0.285
9.49,-0.215
9.492,-0.045
9.494,0.205
9.496,0.145
9.498,-0.065
9.5,-0.045
9.502,-0.165
9.504,-0.24
9.506,-0.33
9.508,-0.285
9.51,-0.135
9.512,-0.05
9.514,0.025
9.516,0.105
9.518,0
9.52,-0.035
9.522,-0.15
9.524,-0.18
9.526,-0.3
9.528,-0.285
9.53,-0.135
9.532,0
9.534,0.075
9.536,0.105
9.538,0.19
9.54,0.01
9.542,-0.195
9.544,-0.205
9.546,-0.315
9.548,-0.21
9.55,-0.135
9.552,0.005
9.554,0.07
9.556,0.085
9.558,-0.035
9.56,0.03
9.562,-0.19
9.564,-0.275
9.566,-0.22
9.568,-0.19
9.57,-0.14
9.572,0.09
9.574,0.185
9.576,0.09
9.578,0.005
9.58,-0.01
9.582,-0.1
9.584,-0.28
9.586,-0.31
9.588,-0.22
9.59,-0.185
9.592,-0.04
9.594,0.06
9.596,0.155
9.598,0.14
9.6,-0.015
9.602,-0.21
9.604,-0.22
9.606,-0.265
9.608,-0.21
9.61,-0.145
9.612,-0.005
9.614,0.045
9.616,0.14
9.618,0.045
9.62,0.02
9.622,-0.095
9.624,-0.2
9.626,-0.295
9.628,-0.335
9.63,-0.17
9.632,0.025
9.634,0.075
9.636,0.055
9.638,0.025
9.64,-0.005
9.642,-0.12
9.644,-0.25
9.646,-0.195
9.648,-0.025
9.65,0.165
9.652,0.105
9.654,-0.02
9.656,0.065
9.658,0.06
9.66,-0.095
9.662,-0.21
9.664,-0.3
9.666,-0.315
9.668,-0.21
9.67,-0.095
9.672,0.04
9.674,0.095
9.676,0.175
9.678,0.09
9.68,-0.07
9.682,-0.21
9.684,-0.26
9.686,-0.15
9.688,-0.205
9.69,-0.01
9.692,0.025
9.694,0.095
9.696,0.03
9.698,0.105
9.7,-0.035
9.702,-0.14
9.704,-0.135
9.706,-0.19
9.708,-0.215
9.71,-0.05
9.712,0.04
9.714,0.105
9.716,0.075
9.718,0.015
9.72,-0.02
9.722,-0.065
9.724,-0.23
9.726,-0.25
9.728,-0.035
9.73,0.125
9.732,0.045
9.734,0.07
9.736,0
9.738,0.02
9.74,-0.065
9.742,-0.13
9.744,-0.23
9.746,-0.205
9.748,-0.235
9.75,-0.02
9.752,0.075
9.754,0.15
9.756,0.105
9.758,0.065
9.76,0.005
9.762,-0.08
9.764,-0.245
9.766,-0.22
9.768,-0.175
9.77,-0.09
9.772,0.095
9.774,0.195
9.776,0.085
9.778,0.06
9.78,-0.01
9.782,-0.185
9.784,-0.235
9.786,-0.21
9.788,-0.11
9.79,0.005
9.792,0.19
9.794,0.2
9.796,0.105
9.798,0.14
9.8,0.04
9.802,-0.085
9.804,-0.175
9.806,-0.17
9.808,-0.105
9.81,0.045
9.812,0.205
9.814,0.32
9.816,0.195
9.818,0.17
9.82,-0.13
9.822,-0.165
9.824,-0.075
9.826,0.025
9.828,-0.035
9.83,0.08
9.832,0.195
9.834,0.205
9.836,0.14
9.838,0.05
9.84,-0.09
9.842,-0.17
9.844,-0.23
9.846,-0.115
9.848,-0.125
9.85,0.01
9.852,0.105
9.854,0.17
9.856,0.1
9.858,0.065
9.86,-0.065
9.862,-0.13
9.864,-0.08
9.866,-0.16
9.868,-0.255
9.87,0
9.872,0.13
9.874,0.11
9.876,0.06
9.878,0.075
9.88,-0.005
9.882,-0.14
9.884,-0.195
9.886,-0.165
9.888,-0.125
9.89,0.1
9.892,0.16
9.894,0.155
9.896,0.08
9.898,0.06
9.9,-0.09
9.902,-0.235
9.904,-0.245
9.906,-0.11
9.908,-0.05
9.91,-0.035
9.912,0.12
9.914,0.2
9.916,0.125
9.918,-0.02
9.92,-0.105
9.922,-0.14
9.924,-0.04
9.926,-0.115
9.928,-0.12
9.93,0.07
9.932,0.235
9.934,0.21
9.936,0.1
9.938,0.025
9.94,-0.12
9.942,-0.17
9.944,-0.14
9.946,0.035
9.948,0.22
9.95,0.44
9.952,0.49
9.954,0.585
9.956,0.66
9.958,0.545
9.96,0.425
9.962,0.285
9.964,0.21
9.966,0.145
9.968,0.17
9.97,0.13
9.972,0.2
9.974,0.2
9.976,0.06
9.978,-0.15
9.98,-0.265
9.982,-0.36
9.984,-0.395
9.986,-0.295
9.988,-0.22
9.99,-0.055
9.992,0.08
9.994,-0.065
9.996,-0.055
9.998,-0.105
