0,0.115
0.002,0.06
0.004,0.04
0.006,0.01
0.008,-0.065
0.01,0
0.012,0.08
0.014,0.07
0.016,0.21
0.018,0.165
0.02,0.16
0.022,0.08
0.024,0.08
0.026,-0.055
0.028,-0.145
0.03,0.14
0.032,0.195
0.034,0.19
0.036,0.15
0.038,0.215
0.04,0.38
0.042,0.185
0.044,0.16
0.046,0.07
0.048,0.01
0.05,0.05
0.052,0.075
0.054,0.125
0.056,0.245
0.058,0.345
0.06,0.315
0.062,0.25
0.064,0.12
0.066,0.01
0.068,-0.025
0.07,0.09
0.072,0.21
0.074,0.18
0.076,0.35
0.078,0.34
0.08,0.25
0.082,0.25
0.084,0.115
0.086,0.135
0.088,0.1
0.09,0.13
0.092,0.24
0.094,0.29
0.096,0.25
0.098,0.465
0.1,0.33
0.102,0.15
0.104,0.1
0.106,0.125
0.108,0.2
0.11,0.07
0.112,0.235
0.114,0.385
0.116,0.335
0.118,0.315
0.12,0.355
0.122,0.28
0.124,0.2
0.126,0.165
0.128,0.045
0.13,0.08
0.132,0.17
0.134,0.22
0.136,0.325
0.138,0.38
0.14,0.265
0.142,0.24
0.144,0.165
0.146,0.005
0.148,-0.135
0.15,0.09
0.152,0.215
0.154,0.285
0.156,0.265
0.158,0.23
0.16,0.16
0.162,0.125
0.164,0.13
0.166,0.02
0.168,0.03
0.17,-0.03
0.172,0.075
0.174,0.13
0.176,0.28
0.178,0.235
0.18,0.115
0.182,0.07
0.184,-0.01
0.186,-0.205
0.188,-0.085
0.19,0.015
0.192,0.125
0.194,0.105
0.196,0.24
0.198,0.285
0.2,0.155
0.202,0.16
0.204,-0.025
0.206,0.05
0.208,0.005
0.21,0.015
0.212,0.14
0.214,0.18
0.216,0.255
0.218,0.25
0.22,0.05
0.222,0.115
0.224,-0.065
0.226,-0.085
0.228,-0.07
0.23,0.085
0.232,0.12
0.234,0.175
0.236,0.25
0.238,0.275
0.24,0.17
0.242,0.125
0.244,-0.115
0.246,-0.17
0.248,0.075
0.25,-0.075
0.252,0.035
0.254,0.23
0.256,0.275
0.258,0.16
0.26,0.09
0.262,0.065
0.264,0.03
0.266,-0.105
0.268,0.015
0.27,0.105
0.272,0.21
0.274,0.25
0.276,0.355
0.278,0.22
0.28,0.045
0.282,0.08
0.284,-0.085
0.286,-0.055
0.288,0.01
0.29,0.02
0.292,0.045
0.294,0.285
0.296,0.3
0.298,0.29
0.3,0.13
0.302,0.035
0.304,0.105
0.306,-0.075
0.308,0.025
0.31,0.085
0.312,0.055
0.314,0.285
0.316,0.18
0.318,0.16
0.32,0.075
0.322,0.125
0.324,-0.01
0.326,0.005
0.328,0.02
0.33,-0.11
0.332,0.055
0.334,0.27
0.336,0.32
0.338,0.165
0.34,0.21
0.342,0.195
0.344,-0.08
0.346,-0.075
0.348,-0.035
0.35,0.125
0.352,0.25
0.354,0.325
0.356,0.14
0.358,0.045
0.36,0.055
0.362,0.09
0.364,-0.1
0.366,-0.045
0.368,0.045
0.37,0.155
0.372,0.22
0.374,0.305
0.376,0.33
0.378,0.21
0.38,0.105
0.382,0.07
0.384,-0.025
0.386,-0.075
0.388,-0.125
0.39,0.035
0.392,0.135
0.394,0.145
0.396,0.11
0.398,0.145
0.4,0.085
0.402,0.075
0.404,-0.05
0.406,-0.03
0.408,0.1
0.41,0.12
0.412,0.03
0.414,0.175
0.416,0.29
0.418,0.185
0.42,0.125
0.422,0.02
0.424,-0.14
0.426,-0.21
0.428,-0.02
0.43,0.05
0.432,0.32
0.434,0.34
0.436,0.26
0.438,0.12
0.44,0.18
0.442,0
0.444,-0.05
0.446,-0.015
0.448,0.135
0.45,0.09
0.452,0.245
0.454,0.36
0.456,0.305
0.458,0.24
0.46,0.035
0.462,-0.035
0.464,-0.065
0.466,-0.035
0.468,0.12
0.47,0.215
0.472,0.245
0.474,0.21
0.476,0.29
0.478,0.16
0.48,0.19
0.482,0.1
0.484,-0.065
0.486,0.04
0.488,0.15
0.49,0.155
0.492,0.275
0.494,0.26
0.496,0.215
0.498,0.195
0.5,0.025
0.502,-0.03
0.504,-0.015
0.506,0.05
0.508,0.13
0.51,0.11
0.512,0.215
0.514,0.15
0.516,0.15
0.518,0.075
0.52,0.085
0.522,-0.05
0.524,-0.11
0.526,-0.025
0.528,0.15
0.53,0.135
0.532,0.235
0.534,0.25
0.536,0.24
0.538,0.19
0.54,0.135
0.542,0.015
0.544,-0.095
0.546,-0.06
0.548,0.1
0.55,0.14
0.552,0.325
0.554,0.22
0.556,0.155
0.558,0.235
0.56,0.105
0.562,-0.125
0.564,-0.015
0.566,0.07
0.568,0.155
0.57,0.21
0.572,0.35
0.574,0.465
0.576,0.545
0.578,0.445
0.58,0.37
0.582,0.4
0.584,0.435
0.586,0.535
0.588,0.69
0.59,0.87
0.592,1.045
0.594,0.925
0.596,0.785
0.598,0.56
0.6,0.48
0.602,0.1
0.604,0.025
0.606,-0.035
0.608,-0.03
0.61,0.205
0.612,0.24
0.614,0.155
0.616,0.07
0.618,0.06
0.62,0.065
0.622,-0.005
0.624,0.04
0.626,0.08
0.628,0.135
0.63,0.175
0.632,0.29
0.634,0.235
0.636,0.22
0.638,0.145
0.64,0.04
0.642,-0.075
0.644,-0.05
0.646,-0.045
0.648,0.06
0.65,0.14
0.652,0.25
0.654,0.255
0.656,0.175
0.658,0.115
0.66,-0.065
0.662,-0.13
0.664,-0.09
0.666,0.005
0.668,0.32
0.67,0.005
0.672,0.145
0.674,0.275
0.676,0.25
0.678,-0.005
0.68,0.045
0.682,-0.025
0.684,-0.005
0.686,0.095
0.688,0.185
0.69,0.145
0.692,0.275
0.694,0.36
0.696,0.29
0.698,0.15
0.7,0.085
0.702,-0.035
0.704,0.035
0.706,0.085
0.708,0.075
0.71,0.225
0.712,0.23
0.714,0.275
0.716,0.12
0.718,0.105
0.72,0.075
0.722,0.04
0.724,0.02
0.726,0.085
0.728,0.225
0.73,0.26
0.732,0.355
0.734,0.255
0.736,0.295
0.738,0.155
0.74,0.015
0.742,-0.025
0.744,-0.015
0.746,0.105
0.748,0.155
0.75,0.235
0.752,0.325
0.754,0.36
0.756,0.25
0.758,-0.01
0.76,0.185
0.762,0.065
0.764,-0.005
0.766,0.16
0.768,0.165
0.77,0.35
0.772,0.465
0.774,0.375
0.776,0.305
0.778,0.245
0.78,0.055
0.782,0.115
0.784,0.18
0.786,0.23
0.788,0.315
0.79,0.295
0.792,0.32
0.794,0.365
0.796,0.32
0.798,0.255
0.8,0.095
0.802,0.05
0.804,0.12
0.806,0.21
0.808,0.23
0.81,0.43
0.812,0.46
0.814,0.395
0.816,0.315
0.818,0.345
0.82,0.185
0.822,0.225
0.824,0.095
0.826,0.355
0.828,0.34
0.83,0.435
0.832,0.52
0.834,0.385
0.836,0.345
0.838,0.245
0.84,0.11
0.842,0.09
0.844,0.105
0.846,0.325
0.848,0.25
0.85,0.39
0.852,0.395
0.854,0.37
0.856,0.28
0.858,0.23
0.86,0.05
0.862,0.16
0.864,0.08
0.866,0.055
0.868,0.3
0.87,0.335
0.872,0.35
0.874,0.33
0.876,0.245
0.878,0.175
0.88,0.055
0.882,0.015
0.884,0.02
0.886,0.11
0.888,0.105
0.89,0.155
0.892,0.19
0.894,0.33
0.896,0.2
0.898,0.09
0.9,0.11
0.902,0.055
0.904,0.115
0.906,0.07
0.908,0.14
0.91,0.265
0.912,0.275
0.914,0.16
0.916,0.195
0.918,0.165
0.92,0.155
0.922,0.03
0.924,0.005
0.926,0.16
0.928,0.125
0.93,0.2
0.932,0.265
0.934,0.165
0.936,0.055
0.938,0.025
0.94,-0.055
0.942,0.04
0.944,0.09
0.946,0.18
0.948,0.195
0.95,0.385
0.952,0.355
0.954,0.235
0.956,0.09
0.958,0.15
0.96,-0.045
0.962,-0.11
0.964,0.08
0.966,0.085
0.968,0.085
0.97,0.325
0.972,0.265
0.974,0.24
0.976,0.235
0.978,0.11
0.98,-0.03
0.982,-0.065
0.984,-0.035
0.986,0.15
0.988,0.17
0.99,0.37
0.992,0.285
0.994,0.165
0.996,0.145
0.998,0.125
1,-0.045
1.002,0.01
1.004,0.04
1.006,0.19
1.008,0.28
1.01,0.26
1.012,0.245
1.014,0.29
1.016,0.23
1.018,0.11
1.02,0.05
1.022,-0.005
1.024,0.085
1.026,0.155
1.028,0.135
1.03,0.365
1.032,0.14
1.034,0.16
1.036,0.195
1.038,0.06
1.04,0.015
1.042,0.1
1.044,0.08
1.046,0.235
1.048,0.235
1.05,0.285
1.052,0.32
1.054,0.175
1.056,0.27
1.058,0.075
1.06,0.045
1.062,-0.075
1.064,0.23
1.066,0.28
1.068,0.3
1.07,0.335
1.072,0.15
1.074,0.09
1.076,0.12
1.078,-0.025
1.08,-0.055
1.082,-0.025
1.084,0.06
1.086,0.18
1.088,0.4
1.09,0.115
1.092,0.22
1.094,0.29
1.096,0.01
1.098,0.06
1.1,0.14
1.102,0.04
1.104,0.125
1.106,0.22
1.108,0.155
1.11,0.165
1.112,0.145
1.114,0.175
1.116,0.145
1.118,-0.03
1.12,-0.01
1.122,0.065
1.124,0.135
1.126,0.215
1.128,0.325
1.13,0.25
1.132,0.265
1.134,0.15
1.136,0.095
1.138,0.02
1.14,-0.005
1.142,0.05
1.144,0.155
1.146,0.195
1.148,0.24
1.15,0.22
1.152,0.23
1.154,0.215
1.156,0.01
1.158,-0.095
1.16,0.08
1.162,0.12
1.164,0.06
1.166,0.18
1.168,0.305
1.17,0.275
1.172,0.19
1.174,0.145
1.176,0.035
1.178,0.05
1.18,0.02
1.182,0.07
1.184,0.055
1.186,0.17
1.188,0.15
1.19,0.255
1.192,0.285
1.194,0.23
1.196,0.105
1.198,0.03
1.2,0.115
1.202,0.1
1.204,0.165
1.206,0.21
1.208,0.44
1.21,0.38
1.212,0.425
1.214,0.34
1.216,0.105
1.218,-0.065
1.22,0
1.222,0.07
1.224,0.135
1.226,0.19
1.228,0.31
1.23,0.385
1.232,0.215
1.234,0.16
1.236,0.175
1.238,0.095
1.24,-0.11
1.242,0.11
1.244,0.205
1.246,0.3
1.248,0.315
1.25,0.35
1.252,0.215
1.254,0.055
1.256,0.03
1.258,-0.015
1.26,0.09
1.262,0.05
1.264,0.21
1.266,0.19
1.268,0.275
1.27,0.33
1.272,0.135
1.274,0.155
1.276,0.04
1.278,0.03
1.28,0.035
1.282,0.09
1.284,0.14
1.286,0.22
1.288,0.35
1.29,0.245
1.292,0.16
1.294,0.125
1.296,-0.02
1.298,-0.025
1.3,-0.06
1.302,0.13
1.304,0.195
1.306,0.28
1.308,0.48
1.31,0.405
1.312,0.39
1.314,0.56
1.316,0.5
1.318,0.65
1.32,0.7
1.322,0.84
1.324,0.885
1.326,0.98
1.328,0.98
1.33,0.905
1.332,0.735
1.334,0.45
1.336,0.115
1.338,-0.02
1.34,-0.005
1.342,0.035
1.344,0.15
1.346,0.29
1.348,0.425
1.35,0.16
1.352,0.2
1.354,0.045
1.356,0.12
1.358,-0.1
1.36,0.1
1.362,0.085
1.364,-0.05
1.366,0.215
1.368,0.32
1.37,0.41
1.372,0.22
1.374,0.11
1.376,-0.01
1.378,0.01
1.38,-0.01
1.382,0.185
1.384,0.245
1.386,0.23
1.388,0.295
1.39,0.325
1.392,0.09
1.394,0.08
1.396,0.085
1.398,-0.01
1.4,0.025
1.402,0.02
1.404,0.02
1.406,0.3
1.408,0.38
1.41,0.265
1.412,0.11
1.414,0.16
1.416,0.125
1.418,0.055
1.42,0
1.422,0.075
1.424,0.12
1.426,0.365
1.428,0.2
1.43,0.325
1.432,0.09
1.434,0.17
1.436,-0.055
1.438,0.105
1.44,-0.075
1.442,-0.03
1.444,0.23
1.446,0.245
1.448,0.345
1.45,0.25
1.452,0.28
1.454,0.165
1.456,0.015
1.458,-0.015
1.46,0.07
1.462,0.165
1.464,0.23
1.466,0.315
1.468,0.4
1.47,0.26
1.472,0.195
1.474,0.13
1.476,0.075
1.478,-0.04
1.48,0.09
1.482,0.16
1.484,0.185
1.486,0.29
1.488,0.335
1.49,0.27
1.492,0.3
1.494,0.175
1.496,0.115
1.498,-0.025
1.5,0.13
1.502,0.26
1.504,0.19
1.506,0.38
1.508,0.32
1.51,0.295
1.512,0.27
1.514,0.065
1.516,0.095
1.518,0.14
1.52,0.16
1.522,0.305
1.524,0.36
1.526,0.47
1.528,0.34
1.53,0.365
1.532,0.295
1.534,0.205
1.536,0.17
1.538,0.095
1.54,0.075
1.542,0.395
1.544,0.25
1.546,0.43
1.548,0.5
1.55,0.375
1.552,0.245
1.554,0.3
1.556,0.14
1.558,0.115
1.56,0.165
1.562,0.33
1.564,0.325
1.566,0.43
1.568,0.35
1.57,0.37
1.572,0.315
1.574,0.395
1.576,0.265
1.578,0.22
1.58,0.205
1.582,0.39
1.584,0.195
1.586,0.45
1.588,0.47
1.59,0.31
1.592,0.34
1.594,0.11
1.596,0.085
1.598,0.005
1.6,0.11
1.602,0.19
1.604,0.2
1.606,0.53
1.608,0.375
1.61,0.215
1.612,0.3
1.614,0.15
1.616,-0.04
1.618,0.1
1.62,0.085
1.622,0.095
1.624,0.235
1.626,0.29
1.628,0.28
1.63,0.235
1.632,0.14
1.634,0.11
1.636,-0.04
1.638,0
1.64,0.06
1.642,0.22
1.644,0.22
1.646,0.275
1.648,0.23
1.65,0.15
1.652,0.12
1.654,0.055
1.656,0.03
1.658,0.105
1.66,0.205
1.662,0.085
1.664,0.16
1.666,0.205
1.668,0.13
1.67,0.075
1.672,0.12
1.674,0.01
1.676,-0.05
1.678,0.04
1.68,0.21
1.682,0.175
1.684,0.3
1.686,0.325
1.688,0.31
1.69,0.21
1.692,0.09
1.694,0
1.696,0.085
1.698,-0.03
1.7,0.05
1.702,0.125
1.704,0.26
1.706,0.275
1.708,0.3
1.71,0.155
1.712,0
1.714,-0.065
1.716,0.01
1.718,0.01
1.72,0.19
1.722,0.045
1.724,0.305
1.726,0.285
1.728,0.33
1.73,0.27
1.732,0.08
1.734,0.03
1.736,-0.04
1.738,0.105
1.74,0.06
1.742,0.185
1.744,0.305
1.746,0.295
1.748,0.235
1.75,0.12
1.752,0.12
1.754,0.075
1.756,0.035
1.758,0.05
1.76,0.185
1.762,0.225
1.764,0.18
1.766,0.295
1.768,0.215
1.77,0.12
1.772,0.17
1.774,0.025
1.776,0.02
1.778,0.005
1.78,0.145
1.782,0.2
1.784,0.2
1.786,0.335
1.788,0.33
1.79,0.225
1.792,0.01
1.794,-0.01
1.796,0.01
1.798,0.09
1.8,0.06
1.802,0.14
1.804,0.175
1.806,0.23
1.808,0.24
1.81,0.265
1.812,0.165
1.814,-0.005
1.816,0.055
1.818,0.045
1.82,0.115
1.822,0.17
1.824,0.29
1.826,0.28
1.828,0.135
1.83,0.125
1.832,-0.005
1.834,-0.01
1.836,-0.02
1.838,0.045
1.84,0.18
1.842,0.09
1.844,0.395
1.846,0.32
1.848,0.325
1.85,0.165
1.852,0.015
1.854,-0.105
1.856,-0.01
1.858,0.075
1.86,0.22
1.862,0.185
1.864,0.22
1.866,0.32
1.868,0.15
1.87,0.19
1.872,0.07
1.874,0.015
1.876,0.06
1.878,0.24
1.88,0.105
1.882,0.23
1.884,0.15
1.886,0.16
1.888,0.045
1.89,0.12
1.892,0.04
1.894,0.03
1.896,0.135
1.898,0.085
1.9,0.22
1.902,0.35
1.904,0.14
1.906,0.34
1.908,0.12
1.91,0.095
1.912,-0.055
1.914,-0.08
1.916,0.065
1.918,0.14
1.92,0.16
1.922,0.265
1.924,0.275
1.926,0.32
1.928,0.235
1.93,0.075
1.932,0.005
1.934,0.005
1.936,-0.015
1.938,0.085
1.94,0.3
1.942,0.165
1.944,0.165
1.946,0.145
1.948,0.125
1.95,0.17
1.952,0.005
1.954,0.01
1.956,-0.025
1.958,0.05
1.96,0.24
1.962,0.22
1.964,0.33
1.966,0.37
1.968,0.155
1.97,0.215
1.972,0.055
1.974,0.07
1.976,0.08
1.978,0.175
1.98,0.185
1.982,0.27
1.984,0.395
1.986,0.24
1.988,0.185
1.99,0.18
1.992,0.12
1.994,0.075
1.996,0.115
1.998,0.14
2,0.17
2.002,0.29
2.004,0.475
2.006,0.32
2.008,0.16
2.01,0.12
2.012,-0.08
2.014,-0.02
2.016,0.02
2.018,0.11
2.02,0.145
2.022,0.29
2.024,0.14
2.026,0.205
2.028,0.205
2.03,0.14
2.032,-0.09
2.034,-0.025
2.036,0.035
2.038,0.015
2.04,0.185
2.042,0.3
2.044,0.27
2.046,0.26
2.048,0.135
2.05,0.095
2.052,-0.02
2.054,-0.055
2.056,-0.005
2.058,0.145
2.06,-0.02
2.062,0.2
2.064,0.215
2.066,0.255
2.068,0.22
2.07,0.145
2.072,0.065
2.074,0.31
2.076,0.32
2.078,0.29
2.08,0.495
2.082,0.605
2.084,0.79
2.086,1.05
2.088,0.97
2.09,0.83
2.092,0.815
2.094,0.845
2.096,0.585
2.098,0.385
2.1,0.345
2.102,0.29
2.104,0.255
2.106,0.115
2.108,0.065
2.11,0.125
2.112,-0.035
2.114,-0.025
2.116,0.035
2.118,0.14
2.12,0.02
2.122,0.295
2.124,0.2
2.126,0.31
2.128,0.07
2.13,0.035
2.132,0.045
2.134,-0.11
2.136,-0.065
2.138,0.055
2.14,0.135
2.142,0.185
2.144,0.2
2.146,0.165
2.148,0.1
2.15,0.225
2.152,0.015
2.154,0.005
2.156,0.085
2.158,0.02
2.16,0.17
2.162,0.23
2.164,0.175
2.166,0.15
2.168,0.055
2.17,0.005
2.172,-0.1
2.174,-0.005
2.176,-0.01
2.178,0.145
2.18,0.235
2.182,0.24
2.184,0.43
2.186,0.27
2.188,0.14
2.19,0.14
2.192,0.01
2.194,-0.125
2.196,0.03
2.198,0.16
2.2,0.265
2.202,0.305
2.204,0.05
2.206,0.26
2.208,0.14
2.21,-0.035
2.212,0.01
2.214,0.075
2.216,0.115
2.218,0.205
2.22,-0.01
2.222,0.175
2.224,0.125
2.226,0.16
2.228,0.165
2.23,0.1
2.232,0.05
2.234,0.025
2.236,0.04
2.238,0.065
2.24,0.145
2.242,0.295
2.244,0.375
2.246,0.195
2.248,0.19
2.25,-0.04
2.252,0
2.254,0.055
2.256,0.12
2.258,0.175
2.26,0.2
2.262,0.305
2.264,0.45
2.266,0.28
2.268,0.22
2.27,0.11
2.272,0.13
2.274,0.01
2.276,0.1
2.278,0.155
2.28,0.165
2.282,0.245
2.284,0.29
2.286,0.19
2.288,0.31
2.29,0.195
2.292,0.13
2.294,0.095
2.296,0.195
2.298,0.225
2.3,0.345
2.302,0.335
2.304,0.34
2.306,0.19
2.308,0.145
2.31,0.13
2.312,0.115
2.314,0.22
2.316,0.335
2.318,0.34
2.32,0.34
2.322,0.38
2.324,0.325
2.326,0.23
2.328,0.235
2.33,0.09
2.332,0.15
2.334,0.19
2.336,0.185
2.338,0.34
2.34,0.255
2.342,0.405
2.344,0.405
2.346,0.28
2.348,0.2
2.35,0.135
2.352,0.135
2.354,0.095
2.356,0.29
2.358,0.145
2.36,0.235
2.362,0.305
2.364,0.24
2.366,0.18
2.368,0.125
2.37,0.01
2.372,-0.065
2.374,0.16
2.376,0.225
2.378,0.17
2.38,0.245
2.382,0.26
2.384,0.28
2.386,0.085
2.388,0.105
2.39,-0.08
2.392,0
2.394,-0.04
2.396,0.095
2.398,0.165
2.4,0.29
2.402,0.285
2.404,0.155
2.406,0.13
2.408,0.085
2.41,-0.145
2.412,0.015
2.414,0.055
2.416,0.12
2.418,0.015
2.42,0.28
2.422,0.24
2.424,0.18
2.426,0.065
2.428,-0.05
2.43,-0.01
2.432,-0.01
2.434,-0.025
2.436,0.12
2.438,0.14
2.44,0.175
2.442,0.245
2.444,0.075
2.446,0.085
2.448,0.09
2.45,-0.09
2.452,-0.14
2.454,0.045
2.456,0.17
2.458,0.22
2.46,0.22
2.462,0.2
2.464,0.155
2.466,0.175
2.468,0.03
2.47,-0.055
2.472,-0.15
2.474,0.01
2.476,0.035
2.478,0.21
2.48,0.31
2.482,0.27
2.484,0.19
2.486,0.025
2.488,0.005
2.49,0.175
2.492,0.1
2.494,0.075
2.496,0.16
2.498,0.19
2.5,0.335
2.502,0.205
2.504,0.06
2.506,0.125
2.508,-0.025
2.51,-0.04
2.512,0.03
2.514,-0.01
2.516,0.135
2.518,0.315
2.52,0.355
2.522,0.1
2.524,0.165
2.526,-0.01
2.528,0.065
2.53,-0.065
2.532,-0.005
2.534,0.08
2.536,0.13
2.538,0.21
2.54,0.3
2.542,0.25
2.544,0.145
2.546,0.085
2.548,0.035
2.55,-0.08
2.552,0.055
2.554,0.15
2.556,0.145
2.558,0.32
2.56,0.365
2.562,0.195
2.564,0.1
2.566,0.1
2.568,0.025
2.57,-0.04
2.572,0.07
2.574,0.105
2.576,0.185
2.578,0.125
2.58,0.305
2.582,0.215
2.584,0.14
2.586,0.095
2.588,-0.005
2.59,0.01
2.592,0.035
2.594,0.035
2.596,0.065
2.598,0.315
2.6,0.22
2.602,0.17
2.604,0.195
2.606,0.17
2.608,-0.055
2.61,0.02
2.612,-0.055
2.614,0.005
2.616,0.18
2.618,0.34
2.62,0.285
2.622,0.115
2.624,0.2
2.626,0.16
2.628,-0.02
2.63,-0.04
2.632,0.075
2.634,0.12
2.636,0.12
2.638,0.325
2.64,0.095
2.642,0.255
2.644,0.205
2.646,0.14
2.648,-0.065
2.65,-0.035
2.652,-0.05
2.654,-0.045
2.656,0.08
2.658,0.2
2.66,0.245
2.662,0.27
2.664,0.13
2.666,0.105
2.668,0.03
2.67,-0.05
2.672,0.025
2.674,-0.05
2.676,0.18
2.678,0.235
2.68,0.265
2.682,0.185
2.684,0.075
2.686,0.2
2.688,-0.01
2.69,-0.035
2.692,0.06
2.694,0.1
2.696,0.14
2.698,0.305
2.7,0.25
2.702,0.15
2.704,0
2.706,0
2.708,-0.025
2.71,-0.02
2.712,-0.1
2.714,0.14
2.716,0.185
2.718,0.21
2.72,0.265
2.722,0.105
2.724,0.08
2.726,0.165
2.728,0.135
2.73,0.005
2.732,-0.035
2.734,0.11
2.736,0.215
2.738,0.255
2.74,0.27
2.742,0.205
2.744,0.175
2.746,0.05
2.748,0.115
2.75,0.165
2.752,0.15
2.754,0.2
2.756,0.11
2.758,0.365
2.76,0.335
2.762,0.095
2.764,0.155
2.766,0.145
2.768,0.095
2.77,-0.025
2.772,0.08
2.774,0.28
2.776,0.325
2.778,0.275
2.78,0.29
2.782,0.15
2.784,0.145
2.786,0.045
2.788,-0.075
2.79,0.01
2.792,0.07
2.794,-0.02
2.796,0.145
2.798,0.3
2.8,0.305
2.802,0.185
2.804,0.175
2.806,-0.02
2.808,-0.05
2.81,-0.085
2.812,-0.005
2.814,0.125
2.816,0.16
2.818,0.24
2.82,0.24
2.822,0.165
2.824,0.025
2.826,-0.045
2.828,-0.08
2.83,-0.03
2.832,0.035
2.834,0.12
2.836,0.15
2.838,0.185
2.84,0.095
2.842,0.12
2.844,0.19
2.846,0.09
2.848,0.11
2.85,0.145
2.852,0.395
2.854,0.515
2.856,0.615
2.858,0.71
2.86,0.835
2.862,0.785
2.864,0.905
2.866,0.74
2.868,0.595
2.87,0.52
2.872,0.54
2.874,0.465
2.876,0.305
2.878,0.27
2.88,0.14
2.882,0.08
2.884,0.125
2.886,-0.02
2.888,-0.11
2.89,-0.08
2.892,0.125
2.894,0.105
2.896,0.085
2.898,0.115
2.9,0.11
2.902,0.095
2.904,0.08
2.906,-0.17
2.908,-0.02
2.91,0.03
2.912,0.115
2.914,0.22
2.916,0.205
2.918,0.23
2.92,0.15
2.922,0.12
2.924,0.015
2.926,-0.12
2.928,-0.02
2.93,0
2.932,0.025
2.934,0.12
2.936,0.25
2.938,0.23
2.94,0.135
2.942,0.07
2.944,0.04
2.946,-0.135
2.948,-0.025
2.95,-0.03
2.952,-0.015
2.954,0.145
2.956,0.185
2.958,0.175
2.96,0.235
2.962,0.02
2.964,-0.005
2.966,-0.065
2.968,-0.125
2.97,-0.08
2.972,0.21
2.974,0.165
2.976,0.25
2.978,0.255
2.98,0.18
2.982,0.15
2.984,0.075
2.986,-0.24
2.988,-0.09
2.99,0.055
2.992,0.125
2.994,0.12
2.996,0.115
2.998,0.225
3,0.115
3.002,0.105
3.004,0.16
3.006,0.015
3.008,-0.04
3.01,-0.06
3.012,0.05
3.014,0.11
3.016,0.3
3.018,0.29
3.02,0.135
3.022,0.115
3.024,0.065
3.026,-0.035
3.028,-0.02
3.03,0.115
3.032,0.205
3.034,0.29
3.036,0.4
3.038,0.435
3.04,0.135
3.042,0.11
3.044,0.055
3.046,-0.02
3.048,0.035
3.05,0.105
3.052,0.12
3.054,0.155
3.056,0.29
3.058,0.265
3.06,0.235
3.062,0.195
3.064,0.045
3.066,0.04
3.068,0.065
3.07,0.14
3.072,0.3
3.074,0.175
3.076,0.32
3.078,0.29
3.08,0.17
3.082,0.2
3.084,0.17
3.086,0.015
3.088,-0.075
3.09,-0.01
3.092,0.21
3.094,0.345
3.096,0.41
3.098,0.355
3.1,0.37
3.102,0.25
3.104,0.32
3.106,0.14
3.108,0.105
3.11,0.12
3.112,0.285
3.114,0.37
3.116,0.385
3.118,0.16
3.12,0.31
3.122,0.18
3.124,0.11
3.126,0.085
3.128,0.08
3.13,0.155
3.132,0.155
3.134,0.145
3.136,0.225
3.138,0.175
3.14,0.21
3.142,0.2
3.144,0.04
3.146,0.085
3.148,0.085
3.15,-0.055
3.152,0.165
3.154,0.195
3.156,0.255
3.158,0.21
3.16,0.055
3.162,0.005
3.164,-0.105
3.166,-0.01
3.168,0.03
3.17,0.045
3.172,0.135
3.174,0.195
3.176,0.165
3.178,0.09
3.18,0.1
3.182,0.095
3.184,-0.155
3.186,-0.155
3.188,0.02
3.19,-0.055
3.192,0.055
3.194,0.16
3.196,0.18
3.198,0.1
3.2,0.065
3.202,0.07
3.204,-0.225
3.206,-0.065
3.208,0.02
3.21,-0.045
3.212,0.025
3.214,0.28
3.216,0.245
3.218,0.27
3.22,0.13
3.222,0.015
3.224,-0.08
3.226,-0.14
3.228,-0.12
3.23,-0.04
3.232,0.04
3.234,0.16
3.236,0.11
3.238,0.055
3.24,0.06
3.242,0.095
3.244,-0.075
3.246,-0.115
3.248,-0.21
3.25,0.015
3.252,0.05
3.254,0.215
3.256,0.24
3.258,0.125
3.26,0.065
3.262,-0.005
3.264,-0.15
3.266,-0.15
3.268,-0.07
3.27,-0.05
3.272,0.095
3.274,0.165
3.276,0.16
3.278,0.18
3.28,-0.055
3.282,0.07
3.284,-0.035
3.286,-0.02
3.288,-0.045
3.29,0.105
3.292,0.06
3.294,0.2
3.296,0.165
3.298,0.135
3.3,0.135
3.302,0.01
3.304,0.015
3.306,-0.03
3.308,-0.15
3.31,-0.06
3.312,0.045
3.314,0.09
3.316,0.115
3.318,0.05
3.32,0.025
3.322,0.075
3.324,-0.075
3.326,-0.1
3.328,-0.015
3.33,0.05
3.332,0.06
3.334,0.2
3.336,0.13
3.338,0.02
3.34,-0.025
3.342,-0.18
3.344,-0.27
3.346,-0.18
3.348,-0.055
3.35,0.06
3.352,0.19
3.354,0.28
3.356,0.195
3.358,0.18
3.36,0.05
3.362,0
3.364,-0.04
3.366,-0.095
3.368,0.005
3.37,0
3.372,0.045
3.374,0.155
3.376,0.125
3.378,0.1
3.38,-0.005
3.382,0.06
3.384,-0.075
3.386,-0.07
3.388,-0.105
3.39,0.105
3.392,0.095
3.394,0.12
3.396,0.075
3.398,0.035
3.4,0.18
3.402,-0.075
3.404,-0.135
3.406,-0.11
3.408,-0.09
3.41,-0.06
3.412,0.105
3.414,0.18
3.416,0.185
3.418,0.02
3.42,0
3.422,-0.165
3.424,-0.145
3.426,-0.045
3.428,0
3.43,0.08
3.432,0.095
3.434,0.155
3.436,0.065
3.438,-0.005
3.44,-0.07
3.442,-0.01
3.444,-0.16
3.446,-0.27
3.448,-0.12
3.45,0.07
3.452,0.1
3.454,0.105
3.456,0.13
3.458,0.15
3.46,-0.03
3.462,-0.135
3.464,-0.08
3.466,0
3.468,-0.06
3.47,0.12
3.472,0.24
3.474,0.215
3.476,0.13
3.478,-0.015
3.48,-0.095
3.482,-0.19
3.484,-0.125
3.486,0.005
3.488,0.08
3.49,0.065
3.492,-0.035
3.494,-0.075
3.496,-0.015
3.498,0.035
3.5,0.04
3.502,-0.175
3.504,-0.01
3.506,-0.115
3.508,-0.12
3.51,0.13
3.512,0.06
3.514,0.15
3.516,0.17
3.518,0.1
3.52,-0.01
3.522,-0.11
3.524,0.045
3.526,0.025
3.528,0.05
3.53,0.09
3.532,0.265
3.534,0.215
3.536,0.205
3.538,0.23
3.54,0.025
3.542,-0.165
3.544,-0.11
3.546,-0.025
3.548,0.095
3.55,0.14
3.552,0.2
3.554,0.21
3.556,0.255
3.558,0.015
3.56,-0.03
3.562,-0.08
3.564,-0.095
3.566,-0.145
3.568,0.04
3.57,0.095
3.572,0.06
3.574,0.1
3.576,0.14
3.578,0.095
3.58,0.03
3.582,-0.24
3.584,-0.13
3.586,-0.075
3.588,-0.05
3.59,0.055
3.592,0.18
3.594,0.085
3.596,0.11
3.598,-0.05
3.6,0.015
3.602,-0.045
3.604,-0.145
3.606,-0.03
3.608,-0.06
3.61,0.02
3.612,0.225
3.614,0.15
3.616,0.005
3.618,0.03
3.62,0.005
3.622,-0.09
3.624,-0.065
3.626,0.085
3.628,0.21
3.63,0.245
3.632,0.685
3.634,0.63
3.636,0.44
3.638,0.45
3.64,0.665
3.642,0.755
3.644,0.785
3.646,0.795
3.648,0.72
3.65,0.645
3.652,0.495
3.654,0.38
3.656,0.145
3.658,-0.055
3.66,-0.08
3.662,-0.205
3.664,-0.135
3.666,-0.095
3.668,0.005
3.67,0.085
3.672,0.065
3.674,0.085
3.676,0.185
3.678,0.135
3.68,0.03
3.682,-0.105
3.684,-0.11
3.686,-0.155
3.688,-0.06
3.69,-0.07
3.692,0.165
3.694,0.045
3.696,-0.015
3.698,0
3.7,0.02
3.702,-0.135
3.704,-0.23
3.706,-0.175
3.708,0.105
3.71,0.2
3.712,0.225
3.714,0.185
3.716,0.055
3.718,-0.02
3.72,-0.105
3.722,-0.105
3.724,-0.095
3.726,0.025
3.728,0.09
3.73,0.19
3.732,0.235
3.734,0.315
3.736,0.145
3.738,-0.05
3.74,0.075
3.742,-0.075
3.744,-0.015
3.746,-0.085
3.748,-0.055
3.75,-0.055
3.752,0.185
3.754,0.165
3.756,0.075
3.758,0.145
3.76,-0.02
3.762,-0.075
3.764,-0.21
3.766,-0.005
3.768,0.095
3.77,0.055
3.772,0.275
3.774,0.25
3.776,0.025
3.778,-0.045
3.78,-0.09
3.782,-0.225
3.784,-0.05
3.786,-0.03
3.788,0.135
3.79,0.27
3.792,0.25
3.794,0.23
3.796,0.065
3.798,0.01
3.8,-0.115
3.802,-0.005
3.804,0.065
3.806,0.01
3.808,0.115
3.81,0.225
3.812,0.185
3.814,0.195
3.816,0.06
3.818,0.035
3.82,-0.04
3.822,-0.07
3.824,0.005
3.826,0.105
3.828,0.205
3.83,0.2
3.832,0.28
3.834,0.13
3.836,0.26
3.838,0.095
3.84,0.065
3.842,0.04
3.844,0.135
3.846,0.125
3.848,0.035
3.85,0.25
3.852,0.305
3.854,0.34
3.856,0.11
3.858,0.04
3.86,-0.06
3.862,0.215
3.864,0.07
3.866,0.11
3.868,0.135
3.87,0.36
3.872,0.4
3.874,0.195
3.876,0.16
3.878,0.11
3.88,-0.005
3.882,-0.02
3.884,0.11
3.886,0.17
3.888,0.29
3.89,0.255
3.892,0.365
3.894,0.31
3.896,0.195
3.898,-0.04
3.9,-0.025
3.902,0.02
3.904,-0.025
3.906,0.175
3.908,0.23
3.91,0.28
3.912,0.35
3.914,0.22
3.916,0.16
3.918,0.08
3.92,-0.09
3.922,0.005
3.924,-0.02
3.926,0.045
3.928,0.02
3.93,0.14
3.932,0.055
3.934,0.07
3.936,-0.02
3.938,-0.1
3.94,-0.195
3.942,-0.115
3.944,0.07
3.946,0.06
3.948,-0.045
3.95,0.13
3.952,0.2
3.954,0.165
3.956,-0.015
3.958,-0.05
3.96,-0.205
3.962,-0.2
3.964,-0.045
3.966,0.12
3.968,0.165
3.97,0.225
3.972,0.205
3.974,-0.08
3.976,-0.09
3.978,-0.195
3.98,-0.145
3.982,-0.175
3.984,-0.075
3.986,-0.04
3.988,-0.035
3.99,0.085
3.992,-0.03
3.994,0
3.996,-0.01
3.998,-0.035
4,-0.14
4.002,0.005
4.004,-0.03
4.006,-0.005
4.008,0.07
4.01,0.215
4.012,0.125
4.014,-0.06
4.016,-0.08
4.018,-0.21
4.02,-0.135
4.022,-0.26
4.024,-0.13
4.026,0.105
4.028,0.125
4.03,0.165
4.032,0.1
4.034,-0.025
4.036,0.03
4.038,-0.01
4.04,0.04
4.042,-0.05
4.044,-0.11
4.046,-0.12
4.048,-0.13
4.05,0.08
4.052,0.065
4.054,0.055
4.056,0.03
4.058,-0.105
4.06,-0.135
4.062,0
4.064,0.09
4.066,0
4.068,0.155
4.07,0.175
4.072,0.05
4.074,0.1
4.076,-0.07
4.078,-0.12
4.08,-0.23
4.082,-0.085
4.084,-0.14
4.086,-0.195
4.088,0.05
4.09,0.235
4.092,0.135
4.094,-0.07
4.096,-0.065
4.098,-0.195
4.1,-0.145
4.102,0.015
4.104,0.055
4.106,0.045
4.108,0.145
4.11,0.055
4.112,-0.14
4.114,-0.025
4.116,0.07
4.118,-0.215
4.12,-0.18
4.122,0.015
4.124,0.02
4.126,0.03
4.128,0.205
4.13,0.16
4.132,0.1
4.134,-0.005
4.136,-0.145
4.138,-0.19
4.14,-0.165
4.142,-0.11
4.144,0.035
4.146,0.125
4.148,0.055
4.15,0.03
4.152,0.035
4.154,-0.03
4.156,-0.1
4.158,0.175
4.16,-0.155
4.162,-0.12
4.164,-0.08
4.166,-0.055
4.168,0.2
4.17,0.025
4.172,0.08
4.174,-0.07
4.176,-0.125
4.178,-0.2
4.18,-0.215
4.182,-0.155
4.184,-0.065
4.186,-0.135
4.188,0.045
4.19,0.13
4.192,0.13
4.194,0.145
4.196,0.02
4.198,-0.195
4.2,-0.17
4.202,-0.155
4.204,-0.03
4.206,-0.055
4.208,0.135
4.21,0.13
4.212,-0.025
4.214,-0.005
4.216,-0.05
4.218,-0.245
4.22,-0.255
4.222,-0.11
4.224,-0.065
4.226,0.15
4.228,0.185
4.23,0.085
4.232,-0.02
4.234,-0.085
4.236,-0.17
4.238,-0.13
4.24,-0.195
4.242,-0.04
4.244,0.11
4.246,0.15
4.248,0.205
4.25,-0.04
4.252,-0.01
4.254,-0.16
4.256,-0.185
4.258,-0.18
4.26,-0.205
4.262,-0.14
4.264,-0.1
4.266,-0.075
4.268,0.09
4.27,0.035
4.272,0.11
4.274,0.015
4.276,-0.055
4.278,-0.13
4.28,-0.11
4.282,-0.045
4.284,-0.095
4.286,-0.025
4.288,0.075
4.29,0.02
4.292,0.035
4.294,-0.01
4.296,-0.12
4.298,-0.175
4.3,-0.04
4.302,0.005
4.304,-0.02
4.306,0.08
4.308,0.2
4.31,0.275
4.312,0.07
4.314,-0.065
4.316,-0.085
4.318,-0.025
4.32,-0.09
4.322,-0.03
4.324,-0.075
4.326,0.15
4.328,0.095
4.33,0.17
4.332,0.01
4.334,-0.02
4.336,-0.005
4.338,-0.2
4.34,-0.04
4.342,-0.07
4.344,-0.005
4.346,0.025
4.348,0.145
4.35,0.115
4.352,-0.175
4.354,-0.08
4.356,-0.155
4.358,-0.235
4.36,-0.175
4.362,-0.09
4.364,-0.12
4.366,0.085
4.368,0.14
4.37,-0.035
4.372,0.035
4.374,-0.05
4.376,-0.25
4.378,-0.18
4.38,-0.24
4.382,-0.245
4.384,-0.08
4.386,0.125
4.388,0.03
4.39,0.08
4.392,0.055
4.394,0.095
4.396,-0.205
4.398,-0.245
4.4,-0.14
4.402,-0.14
4.404,-0.005
4.406,0.095
4.408,0.09
4.41,0.115
4.412,0.155
4.414,0.065
4.416,0.05
4.418,0.135
4.42,0.245
4.422,0.415
4.424,0.58
4.426,0.935
4.428,0.835
4.43,0.725
4.432,0.635
4.434,0.495
4.436,0.175
4.438,0.035
4.44,-0.065
4.442,-0.04
4.444,-0.05
4.446,-0.065
4.448,-0.01
4.45,0.075
4.452,-0.015
4.454,-0.13
4.456,-0.28
4.458,-0.28
4.46,-0.225
4.462,-0.095
4.464,-0.06
4.466,0.015
4.468,0.145
4.47,0.09
4.472,0.02
4.474,-0.1
4.476,-0.12
4.478,-0.185
4.48,-0.165
4.482,-0.17
4.484,0.005
4.486,0.08
4.488,0.08
4.49,-0.065
4.492,-0.115
4.494,-0.06
4.496,-0.255
4.498,-0.295
4.5,-0.145
4.502,-0.085
4.504,-0.12
4.506,-0.005
4.508,0.025
4.51,-0.03
4.512,-0.125
4.514,-0.25
4.516,-0.265
4.518,-0.17
4.52,-0.205
4.522,0.065
4.524,0.07
4.526,0.13
4.528,0.125
4.53,-0.04
4.532,-0.165
4.534,-0.195
4.536,-0.33
4.538,-0.325
4.54,-0.255
4.542,-0.11
4.544,0.02
4.546,0.125
4.548,0.085
4.55,0.055
4.552,0.035
4.554,-0.23
4.556,-0.245
4.558,-0.285
4.56,-0.135
4.562,-0.065
4.564,0.07
4.566,0.14
4.568,-0.055
4.57,0.01
4.572,0.045
4.574,-0.275
4.576,-0.275
4.578,-0.24
4.58,-0.28
4.582,-0.09
4.584,-0.01
4.586,0.175
4.588,0.055
4.59,-0.06
4.592,-0.07
4.594,-0.055
4.596,-0.115
4.598,-0.065
4.6,-0.08
4.602,-0.07
4.604,0.17
4.606,0.155
4.608,0.175
4.61,-0.08
4.612,-0.01
4.614,-0.085
4.616,-0.165
4.618,-0.195
4.62,-0.13
4.622,-0.04
4.624,0.07
4.626,0.12
4.628,0.065
4.63,-0.01
4.632,0
4.634,-0.13
4.636,-0.125
4.638,-0.015
4.64,-0.13
4.642,0.015
4.644,0.095
4.646,0.205
4.648,0.17
4.65,0.13
4.652,-0.07
4.654,-0.12
4.656,-0.025
4.658,-0.05
4.66,-0.025
4.662,0.13
4.664,0.225
4.666,0.195
4.668,0.22
4.67,0.16
4.672,0.08
4.674,-0.17
4.676,-0.05
4.678,-0.045
4.68,0.03
4.682,0.125
4.684,0.185
4.686,0.14
4.688,0.075
4.69,0.07
4.692,0
4.694,-0.025
4.696,-0.265
4.698,-0.175
4.7,-0.17
4.702,-0.02
4.704,0.15
4.706,0.13
4.708,0.11
4.71,-0.16
4.712,-0.18
4.714,-0.28
4.716,-0.255
4.718,-0.195
4.72,-0.175
4.722,-0.025
4.724,0.105
4.726,0.14
4.728,0.025
4.73,-0.035
4.732,-0.185
4.734,-0.255
4.736,-0.15
4.738,-0.155
4.74,-0.105
4.742,-0.105
4.744,0.005
4.746,0.04
4.748,-0.12
4.75,-0.125
4.752,-0.08
4.754,-0.21
4.756,-0.255
4.758,-0.24
4.76,-0.185
4.762,0
4.764,0
4.766,-0.055
4.768,-0.105
4.77,-0.245
4.772,-0.065
4.774,-0.195
4.776,-0.225
4.778,-0.065
4.78,-0.015
4.782,-0.01
4.784,-0.01
4.786,0.125
4.788,0.03
4.79,-0.135
4.792,-0.19
4.794,-0.365
4.796,-0.275
4.798,-0.18
4.8,-0.135
4.802,-0.18
4.804,-0.08
4.806,0.085
4.808,-0.015
4.81,0.035
4.812,-0.205
4.814,-0.375
4.816,-0.405
4.818,-0.27
4.82,-0.28
4.822,-0.105
4.824,0
4.826,-0.005
4.828,-0.05
4.83,-0.14
4.832,-0.29
4.834,-0.26
4.836,-0.275
4.838,-0.145
4.84,-0.15
4.842,-0.03
4.844,0.145
4.846,-0.02
4.848,-0.105
4.85,-0.19
4.852,-0.265
4.854,-0.33
4.856,-0.19
4.858,-0.145
4.86,0.035
4.862,0.015
4.864,0.07
4.866,0.075
4.868,0.015
4.87,-0.12
4.872,-0.275
4.874,-0.365
4.876,-0.145
4.878,-0.12
4.88,-0.09
4.882,0
4.884,0.09
4.886,-0.03
4.888,-0.055
4.89,-0.215
4.892,-0.215
4.894,-0.25
4.896,-0.275
4.898,-0.06
4.9,-0.105
4.902,-0.08
4.904,-0.01
4.906,-0.04
4.908,-0.165
4.91,-0.195
4.912,-0.335
4.914,-0.235
4.916,-0.26
4.918,-0.265
4.92,-0.045
4.922,-0.03
4.924,0
4.926,0.015
4.928,-0.175
4.93,-0.235
4.932,-0.34
4.934,-0.215
4.936,-0.225
4.938,-0.28
4.94,-0.28
4.942,-0.095
4.944,-0.005
4.946,-0.095
4.948,-0.095
4.95,-0.195
4.952,-0.165
4.954,-0.125
4.956,-0.22
4.958,-0.09
4.96,-0.18
4.962,0.005
4.964,-0.09
4.966,-0.06
4.968,-0.095
4.97,-0.23
4.972,-0.26
4.974,-0.365
4.976,-0.265
4.978,-0.13
4.98,-0.06
4.982,0.025
4.984,-0.03
4.986,-0.045
4.988,-0.215
4.99,-0.145
4.992,-0.28
4.994,-0.345
4.996,-0.195
4.998,-0.14
5,-0.2
5.002,0.03
5.004,-0.115
5.006,-0.035
5.008,-0.125
5.01,-0.23
5.012,-0.24
5.014,-0.29
5.016,-0.18
5.018,-0.14
5.02,-0.09
5.022,-0.06
5.024,0.075
5.026,-0.115
5.028,-0.155
5.03,-0.165
5.032,-0.32
5.034,-0.415
5.036,-0.295
5.038,-0.17
5.04,-0.16
5.042,0.07
5.044,-0.015
5.046,-0.01
5.048,-0.085
5.05,-0.25
5.052,-0.46
5.054,-0.28
5.056,-0.285
5.058,-0.115
5.06,-0.085
5.062,0.085
5.064,0.025
5.066,-0.055
5.068,-0.165
5.07,-0.06
5.072,-0.25
5.074,-0.235
5.076,-0.15
5.078,-0.155
5.08,0.095
5.082,0.15
5.084,0.03
5.086,0.115
5.088,-0.1
5.09,-0.12
5.092,-0.21
5.094,-0.2
5.096,-0.225
5.098,-0.27
5.1,-0.135
5.102,0.02
5.104,0.06
5.106,-0.01
5.108,-0.21
5.11,-0.23
5.112,-0.35
5.114,-0.465
5.116,-0.305
5.118,-0.17
5.12,-0.19
5.122,-0.085
5.124,0.04
5.126,-0.11
5.128,-0.24
5.13,-0.19
5.132,-0.24
5.134,-0.305
5.136,-0.15
5.138,-0.175
5.14,-0.095
5.142,0
5.144,-0.12
5.146,-0.205
5.148,-0.225
5.15,-0.21
5.152,-0.375
5.154,-0.345
5.156,-0.26
5.158,-0.155
5.16,-0.1
5.162,0.035
5.164,0.1
5.166,0
5.168,-0.065
5.17,-0.155
5.172,-0.045
5.174,-0.055
5.176,0.345
5.178,0.37
5.18,0.66
5.182,0.815
5.184,0.735
5.186,0.645
5.188,0.45
5.19,0.32
5.192,0.115
5.194,0.025
5.196,-0.155
5.198,-0.17
5.2,-0.225
5.202,-0.145
5.204,-0.125
5.206,-0.235
5.208,-0.235
5.21,-0.235
5.212,-0.31
5.214,-0.275
5.216,-0.22
5.218,-0.2
5.22,-0.07
5.222,-0.145
5.224,-0.2
5.226,-0.08
5.228,-0.195
5.23,-0.375
5.232,-0.35
5.234,-0.21
5.236,-0.2
5.238,-0.21
5.24,-0.115
5.242,-0.115
5.244,-0.12
5.246,-0.28
5.248,-0.11
5.25,-0.35
5.252,-0.215
5.254,-0.265
5.256,-0.2
5.258,-0.175
5.26,-0.005
5.262,-0.115
5.264,-0.02
5.266,-0.03
5.268,-0.12
5.27,-0.305
5.272,-0.27
5.274,-0.13
5.276,-0.125
5.278,-0.14
5.28,-0.02
5.282,-0.015
5.284,0.01
5.286,-0.225
5.288,-0.2
5.29,-0.33
5.292,-0.24
5.294,-0.345
5.296,-0.235
5.298,-0.16
5.3,-0.03
5.302,-0.05
5.304,-0.265
5.306,-0.205
5.308,-0.265
5.31,-0.36
5.312,-0.355
5.314,-0.315
5.316,-0.155
5.318,-0.09
5.32,0.04
5.322,0.085
5.324,-0.015
5.326,-0.085
5.328,-0.11
5.33,-0.465
5.332,-0.41
5.334,-0.22
5.336,-0.19
5.338,-0.29
5.34,-0.125
5.342,-0.07
5.344,-0.1
5.346,-0.155
5.348,-0.035
5.35,-0.105
5.352,-0.17
5.354,-0.06
5.356,-0.075
5.358,-0.03
5.36,0.105
5.362,-0.065
5.364,-0.075
5.366,-0.075
5.368,-0.2
5.37,-0.345
5.372,-0.265
5.374,-0.21
5.376,-0.115
5.378,-0.035
5.38,0.07
5.382,0.065
5.384,0.025
5.386,0.005
5.388,-0.07
5.39,-0.19
5.392,-0.15
5.394,-0.18
5.396,-0.045
5.398,0.005
5.4,0.145
5.402,0.11
5.404,0
5.406,-0.05
5.408,-0.13
5.41,-0.1
5.412,-0.21
5.414,-0.02
5.416,-0.05
5.418,0.015
5.42,0.095
5.422,0.02
5.424,-0.035
5.426,-0.09
5.428,-0.04
5.43,-0.145
5.432,-0.09
5.434,-0.025
5.436,0.1
5.438,0.035
5.44,0.075
5.442,-0.01
5.444,-0.085
5.446,-0.02
5.448,-0.185
5.45,-0.215
5.452,-0.265
5.454,-0.155
5.456,-0.055
5.458,-0.02
5.46,-0.055
5.462,-0.025
5.464,-0.05
5.466,-0.19
5.468,-0.23
5.47,-0.27
5.472,-0.32
5.474,-0.18
5.476,-0.22
5.478,0.02
5.48,0.09
5.482,0.045
5.484,-0.01
5.486,-0.175
5.488,-0.305
5.49,-0.295
5.492,-0.28
5.494,-0.265
5.496,-0.255
5.498,-0.07
5.5,0.015
5.502,-0.08
5.504,-0.18
5.506,-0.195
5.508,-0.285
5.51,-0.25
5.512,-0.31
5.514,-0.205
5.516,-0.31
5.518,-0.065
5.52,-0.09
5.522,0.07
5.524,-0.095
5.526,-0.115
5.528,-0.38
5.53,-0.365
5.532,-0.31
5.534,-0.33
5.536,-0.335
5.538,-0.175
5.54,0
5.542,0
5.544,-0.06
5.546,-0.11
5.548,-0.215
5.55,-0.32
5.552,-0.25
5.554,-0.305
5.556,-0.125
5.558,-0.035
5.56,-0.015
5.562,-0.15
5.564,-0.23
5.566,-0.35
5.568,-0.35
5.57,-0.33
5.572,-0.23
5.574,-0.07
5.576,-0.125
5.578,0.11
5.58,-0.005
5.582,-0.035
5.584,-0.245
5.586,-0.315
5.588,-0.225
5.59,-0.285
5.592,-0.285
5.594,-0.235
5.596,-0.18
5.598,-0.08
5.6,-0.105
5.602,-0.155
5.604,-0.165
5.606,-0.185
5.608,-0.27
5.61,-0.375
5.612,-0.25
5.614,-0.27
5.616,-0.29
5.618,-0.09
5.62,0.03
5.622,-0.05
5.624,-0.17
5.626,-0.12
5.628,-0.285
5.63,-0.255
5.632,-0.3
5.634,-0.1
5.636,-0.055
5.638,0.005
5.64,0.07
5.642,-0.205
5.644,-0.105
5.646,-0.155
5.648,-0.345
5.65,-0.34
5.652,-0.31
5.654,-0.24
5.656,-0.195
5.658,-0.1
5.66,-0.02
5.662,-0.185
5.664,-0.065
5.666,-0.075
5.668,-0.31
5.67,-0.33
5.672,-0.205
5.674,-0.105
5.676,-0.23
5.678,-0.125
5.68,-0.135
5.682,-0.2
5.684,-0.255
5.686,-0.28
5.688,-0.27
5.69,-0.335
5.692,-0.375
5.694,-0.32
5.696,-0.065
5.698,-0.065
5.7,-0.07
5.702,-0.185
5.704,-0.235
5.706,-0.29
5.708,-0.245
5.71,-0.27
5.712,-0.355
5.714,-0.275
5.716,-0.09
5.718,0.015
5.72,-0.07
5.722,-0.2
5.724,-0.195
5.726,-0.34
5.728,-0.275
5.73,-0.3
5.732,-0.315
5.734,-0.195
5.736,-0.105
5.738,-0.03
5.74,-0.025
5.742,-0.2
5.744,-0.085
5.746,-0.27
5.748,-0.315
5.75,-0.39
5.752,-0.315
5.754,-0.215
5.756,-0.12
5.758,-0.005
5.76,-0.065
5.762,-0.15
5.764,-0.215
5.766,-0.305
5.768,-0.395
5.77,-0.315
5.772,-0.265
5.774,-0.305
5.776,-0.185
5.778,0.005
5.78,-0.11
5.782,-0.215
5.784,-0.2
5.786,-0.265
5.788,-0.18
5.79,-0.16
5.792,-0.125
5.794,-0.05
5.796,-0.07
5.798,0.045
5.8,-0.03
5.802,-0.12
5.804,-0.155
5.806,-0.255
5.808,-0.34
5.81,-0.225
5.812,-0.17
5.814,-0.115
5.816,0.105
5.818,-0.055
5.82,0.025
5.822,-0.185
5.824,-0.32
5.826,-0.405
5.828,-0.31
5.83,-0.345
5.832,-0.34
5.834,-0.15
5.836,0.085
5.838,0.015
5.84,-0.11
5.842,-0.235
5.844,-0.315
5.846,-0.37
5.848,-0.405
5.85,-0.47
5.852,-0.315
5.854,-0.24
5.856,-0.13
5.858,-0.065
5.86,-0.155
5.862,-0.16
5.864,-0.12
5.866,-0.25
5.868,-0.31
5.87,-0.3
5.872,-0.43
5.874,-0.165
5.876,-0.115
5.878,-0.09
5.88,-0.075
5.882,-0.095
5.884,-0.19
5.886,-0.185
5.888,-0.19
5.89,-0.04
5.892,0.165
5.894,0.215
5.896,0.385
5.898,0.495
5.9,0.555
5.902,0.54
5.904,0.44
5.906,0.2
5.908,0.335
5.91,0.175
5.912,0.095
5.914,-0.12
5.916,-0.03
5.918,-0.125
5.92,-0.18
5.922,-0.28
5.924,-0.25
5.926,-0.44
5.928,-0.335
5.93,-0.225
5.932,-0.245
5.934,-0.29
5.936,-0.195
5.938,-0.165
5.94,-0.2
5.942,-0.315
5.944,-0.295
5.946,-0.335
5.948,-0.37
5.95,-0.39
5.952,-0.21
5.954,-0.225
5.956,-0.075
5.958,-0.025
5.96,0.005
5.962,-0.305
5.964,-0.37
5.966,-0.29
5.968,-0.39
5.97,-0.33
5.972,-0.21
5.974,-0.155
5.976,0.05
5.978,-0.125
5.98,-0.185
5.982,-0.285
5.984,-0.28
5.986,-0.43
5.988,-0.48
5.99,-0.31
5.992,-0.27
5.994,-0.085
5.996,-0.065
5.998,-0.09
6,-0.17
6.002,-0.175
6.004,-0.235
6.006,-0.435
6.008,-0.375
6.01,-0.26
6.012,-0.23
6.014,-0.12
6.016,-0.12
6.018,-0.205
6.02,-0.065
6.022,-0.255
6.024,-0.27
6.026,-0.285
6.028,-0.355
6.03,-0.3
6.032,-0.24
6.034,-0.13
6.036,-0.075
6.038,-0.15
6.04,-0.06
6.042,-0.16
6.044,-0.35
6.046,-0.315
6.048,-0.28
6.05,-0.33
6.052,-0.255
6.054,-0.07
6.056,-0.095
6.058,-0.1
6.06,-0.15
6.062,-0.22
6.064,-0.265
6.066,-0.305
6.068,-0.27
6.07,-0.195
6.072,-0.07
6.074,-0.005
6.076,-0.035
6.078,-0.05
6.08,-0.145
6.082,-0.15
6.084,-0.29
6.086,-0.335
6.088,-0.295
6.09,-0.22
6.092,-0.09
6.094,-0.115
6.096,0.03
6.098,0.09
6.1,-0.075
6.102,-0.245
6.104,-0.27
6.106,-0.12
6.108,-0.19
6.11,-0.135
6.112,-0.135
6.114,0.17
6.116,0.175
6.118,-0.005
6.12,-0.15
6.122,-0.245
6.124,-0.295
6.126,-0.135
6.128,-0.16
6.13,-0.11
6.132,-0.08
6.134,0.095
6.136,-0.01
6.138,0.015
6.14,-0.04
6.142,-0.185
6.144,-0.305
6.146,-0.245
6.148,-0.195
6.15,-0.03
6.152,-0.075
6.154,0.115
6.156,-0.025
6.158,0.025
6.16,-0.05
6.162,-0.055
6.164,-0.26
6.166,-0.225
6.168,-0.205
6.17,-0.175
6.172,-0.065
6.174,0.015
6.176,0.02
6.178,-0.065
6.18,-0.215
6.182,-0.235
6.184,-0.345
6.186,-0.23
6.188,-0.255
6.19,-0.155
6.192,-0.21
6.194,-0.015
6.196,-0.065
6.198,-0.2
6.2,-0.11
6.202,-0.215
6.204,-0.4
6.206,-0.48
6.208,-0.205
6.21,-0.24
6.212,-0.15
6.214,-0.14
6.216,-0.14
6.218,-0.195
6.22,-0.305
6.222,-0.24
6.224,-0.405
6.226,-0.375
6.228,-0.38
6.23,-0.275
6.232,-0.19
6.234,-0.12
6.236,-0.095
6.238,-0.15
6.24,-0.175
6.242,-0.33
6.244,-0.46
6.246,-0.285
6.248,-0.195
6.25,-0.22
6.252,-0.285
6.254,-0.11
6.256,-0.075
6.258,-0.185
6.26,-0.24
6.262,-0.375
6.264,-0.49
6.266,-0.47
6.268,-0.31
6.27,-0.305
6.272,-0.25
6.274,-0.105
6.276,-0.18
6.278,-0.215
6.28,-0.245
6.282,-0.25
6.284,-0.395
6.286,-0.37
6.288,-0.345
6.29,-0.235
6.292,-0.07
6.294,-0.125
6.296,-0.075
6.298,-0.165
6.3,-0.3
6.302,-0.28
6.304,-0.46
6.306,-0.355
6.308,-0.305
6.31,-0.225
6.312,-0.06
6.314,-0.105
6.316,-0.05
6.318,-0.055
6.32,-0.28
6.322,-0.44
6.324,-0.635
6.326,-0.44
6.328,-0.255
6.33,-0.205
6.332,-0.055
6.334,-0.08
6.336,-0.095
6.338,-0.19
6.34,-0.27
6.342,-0.335
6.344,-0.445
6.346,-0.385
6.348,-0.33
6.35,-0.27
6.352,-0.18
6.354,-0.075
6.356,-0.195
6.358,-0.175
6.36,-0.22
6.362,-0.48
6.364,-0.41
6.366,-0.245
6.368,-0.405
6.37,-0.31
6.372,-0.07
6.374,-0.145
6.376,-0.195
6.378,-0.21
6.38,-0.335
6.382,-0.44
6.384,-0.355
6.386,-0.405
6.388,-0.275
6.39,-0.23
6.392,0.01
6.394,-0.1
6.396,-0.145
6.398,-0.325
6.4,-0.375
6.402,-0.465
6.404,-0.42
6.406,-0.4
6.408,-0.3
6.41,-0.2
6.412,-0.12
6.414,-0.16
6.416,-0.085
6.418,-0.175
6.42,-0.26
6.422,-0.325
6.424,-0.3
6.426,-0.32
6.428,-0.34
6.43,-0.33
6.432,-0.21
6.434,-0.12
6.436,-0.14
6.438,-0.305
6.44,-0.325
6.442,-0.435
6.444,-0.24
6.446,-0.45
6.448,-0.365
6.45,-0.235
6.452,-0.015
6.454,-0.07
6.456,-0.32
6.458,-0.23
6.46,-0.27
6.462,-0.44
6.464,-0.495
6.466,-0.395
6.468,-0.26
6.47,-0.28
6.472,-0.155
6.474,-0.125
6.476,-0.08
6.478,-0.155
6.48,-0.2
6.482,-0.46
6.484,-0.375
6.486,-0.415
6.488,-0.285
6.49,-0.275
6.492,-0.01
6.494,-0.05
6.496,-0.08
6.498,-0.17
6.5,-0.235
6.502,-0.325
6.504,-0.265
6.506,-0.345
6.508,-0.305
6.51,-0.215
6.512,-0.075
6.514,-0.15
6.516,0.03
6.518,-0.105
6.52,-0.2
6.522,-0.33
6.524,-0.35
6.526,-0.29
6.528,-0.3
6.53,-0.24
6.532,-0.08
6.534,-0.055
6.536,-0.115
6.538,-0.23
6.54,-0.28
6.542,-0.47
6.544,-0.525
6.546,-0.36
6.548,-0.385
6.55,-0.355
6.552,-0.065
6.554,-0.19
6.556,-0.15
6.558,-0.365
6.56,-0.32
6.562,-0.375
6.564,-0.395
6.566,-0.33
6.568,-0.24
6.57,-0.195
6.572,-0.17
6.574,-0.18
6.576,-0.26
6.578,-0.285
6.58,-0.29
6.582,-0.445
6.584,-0.36
6.586,-0.47
6.588,-0.36
6.59,-0.115
6.592,0.01
6.594,-0.015
6.596,-0.145
6.598,0.05
6.6,-0.045
6.602,-0.105
6.604,0.015
6.606,0.19
6.608,0.395
6.61,0.555
6.612,0.785
6.614,0.695
6.616,0.435
6.618,0.375
6.62,0.165
6.622,-0.17
6.624,-0.335
6.626,-0.42
6.628,-0.44
6.63,-0.265
6.632,-0.22
6.634,-0.24
6.636,-0.33
6.638,-0.36
6.64,-0.415
6.642,-0.46
6.644,-0.32
6.646,-0.16
6.648,-0.19
6.65,-0.175
6.652,-0.115
6.654,-0.11
6.656,-0.235
6.658,-0.34
6.66,-0.385
6.662,-0.445
6.664,-0.335
6.666,-0.255
6.668,-0.28
6.67,-0.225
6.672,-0.175
6.674,-0.175
6.676,-0.21
6.678,-0.31
6.68,-0.37
6.682,-0.45
6.684,-0.41
6.686,-0.41
6.688,-0.28
6.69,-0.225
6.692,-0.07
6.694,-0.095
6.696,-0.09
6.698,-0.275
6.7,-0.395
6.702,-0.445
6.704,-0.33
6.706,-0.34
6.708,-0.245
6.71,-0.04
6.712,-0.13
6.714,-0.125
6.716,-0.47
6.718,-0.34
6.72,-0.445
6.722,-0.465
6.724,-0.3
6.726,-0.185
6.728,-0.25
6.73,-0.105
6.732,-0.035
6.734,-0.045
6.736,-0.325
6.738,-0.315
6.74,-0.39
6.742,-0.37
6.744,-0.265
6.746,-0.26
6.748,-0.23
6.75,-0.085
6.752,-0.175
6.754,-0.205
6.756,-0.28
6.758,-0.235
6.76,-0.35
6.762,-0.38
6.764,-0.365
6.766,-0.155
6.768,-0.205
6.77,-0.06
6.772,-0.11
6.774,-0.23
6.776,-0.195
6.778,-0.2
6.78,-0.345
6.782,-0.24
6.784,-0.31
6.786,-0.2
6.788,-0.145
6.79,0.06
6.792,-0.02
6.794,-0.12
6.796,-0.275
6.798,-0.185
6.8,-0.32
6.802,-0.555
6.804,-0.28
6.806,-0.115
6.808,-0.055
6.81,-0.09
6.812,-0.035
6.814,-0.045
6.816,-0.215
6.818,-0.21
6.82,-0.295
6.822,-0.27
6.824,-0.165
6.826,-0.065
6.828,-0.1
6.83,0.015
6.832,-0.025
6.834,-0.08
6.836,-0.08
6.838,-0.16
6.84,-0.18
6.842,-0.23
6.844,-0.135
6.846,-0.155
6.848,-0.045
6.85,-0.045
6.852,0.09
6.854,-0.03
6.856,-0.075
6.858,-0.195
6.86,-0.245
6.862,-0.315
6.864,-0.165
6.866,-0.13
6.868,-0.07
6.87,-0.035
6.872,-0.085
6.874,-0.13
6.876,-0.185
6.878,-0.085
6.88,-0.315
6.882,-0.245
6.884,-0.21
6.886,-0.205
6.888,-0.18
6.89,-0.085
6.892,0.06
6.894,-0.235
6.896,-0.23
6.898,-0.385
6.9,-0.335
6.902,-0.365
6.904,-0.405
6.906,-0.2
6.908,-0.185
6.91,-0.135
6.912,-0.09
6.914,-0.12
6.916,-0.295
6.918,-0.205
6.92,-0.315
6.922,-0.375
6.924,-0.325
6.926,-0.2
6.928,-0.205
6.93,-0.185
6.932,-0.195
6.934,-0.195
6.936,-0.29
6.938,-0.295
6.94,-0.335
6.942,-0.455
6.944,-0.36
6.946,-0.225
6.948,-0.12
6.95,-0.145
6.952,-0.175
6.954,-0.17
6.956,-0.23
6.958,-0.485
6.96,-0.435
6.962,-0.225
6.964,-0.305
6.966,-0.285
6.968,-0.105
6.97,-0.095
6.972,-0.29
6.974,-0.26
6.976,-0.315
6.978,-0.455
6.98,-0.47
6.982,-0.3
6.984,-0.24
6.986,-0.14
6.988,-0.18
6.99,-0.07
6.992,-0.11
6.994,-0.285
6.996,-0.315
6.998,-0.385
7,-0.385
7.002,-0.315
7.004,-0.23
7.006,-0.17
7.008,-0.2
7.01,-0.185
7.012,-0.145
7.014,-0.16
7.016,-0.235
7.018,-0.23
7.02,-0.345
7.022,-0.47
7.024,-0.355
7.026,-0.215
7.028,-0.095
7.03,-0.1
7.032,-0.13
7.034,-0.225
7.036,-0.285
7.038,-0.37
7.04,-0.37
7.042,-0.27
7.044,-0.27
7.046,-0.2
7.048,-0.165
7.05,-0.065
7.052,-0.135
7.054,-0.3
7.056,-0.33
7.058,-0.42
7.06,-0.375
7.062,-0.295
7.064,-0.235
7.066,-0.12
7.068,-0.05
7.07,-0.145
7.072,-0.24
7.074,-0.26
7.076,-0.18
7.078,-0.385
7.08,-0.425
7.082,-0.39
7.084,-0.23
7.086,-0.22
7.088,-0.135
7.09,-0.065
7.092,-0.185
7.094,-0.195
7.096,-0.3
7.098,-0.48
7.1,-0.315
7.102,-0.325
7.104,-0.235
7.106,-0.145
7.108,-0.04
7.11,-0.17
7.112,-0.09
7.114,-0.16
7.116,-0.265
7.118,-0.33
7.12,-0.295
7.122,-0.32
7.124,-0.445
7.126,-0.185
7.128,-0.12
7.13,-0.14
7.132,-0.295
7.134,-0.245
7.136,-0.32
7.138,-0.345
7.14,-0.44
7.142,-0.29
7.144,-0.26
7.146,-0.11
7.148,-0.055
7.15,-0.075
7.152,-0.255
7.154,-0.175
7.156,-0.07
7.158,-0.325
7.16,-0.335
7.162,-0.265
7.164,-0.21
7.166,-0.105
7.168,0.045
7.17,0.035
7.172,-0.08
7.174,-0.19
7.176,-0.23
7.178,-0.365
7.18,-0.32
7.182,-0.11
7.184,-0.075
7.186,-0.11
7.188,-0.015
7.19,-0.04
7.192,-0.03
7.194,-0.14
7.196,-0.32
7.198,-0.36
7.2,-0.37
7.202,-0.345
7.204,-0.195
7.206,-0.135
7.208,-0.13
7.21,-0.185
7.212,-0.165
7.214,-0.14
7.216,-0.245
7.218,-0.34
7.22,-0.325
7.222,-0.27
7.224,-0.28
7.226,-0.16
7.228,-0.145
7.23,-0.145
7.232,-0.255
7.234,-0.305
7.236,-0.3
7.238,-0.41
7.24,-0.365
7.242,-0.35
7.244,-0.295
7.246,-0.085
7.248,0.03
7.25,-0.17
7.252,-0.17
7.254,-0.23
7.256,-0.355
7.258,-0.535
7.26,-0.37
7.262,-0.205
7.264,-0.035
7.266,0.1
7.268,0.26
7.27,0.23
7.272,0.275
7.274,0.275
7.276,0.225
7.278,0.42
7.28,0.455
7.282,0.54
7.284,0.535
7.286,0.49
7.288,0.545
7.29,0.19
7.292,-0.13
7.294,-0.22
7.296,-0.44
7.298,-0.43
7.3,-0.34
7.302,-0.19
7.304,-0.23
7.306,-0.175
7.308,-0.155
7.31,-0.28
7.312,-0.235
7.314,-0.16
7.316,-0.245
7.318,-0.365
7.32,-0.345
7.322,-0.26
7.324,-0.15
7.326,-0.115
7.328,-0.045
7.33,-0.13
7.332,-0.165
7.334,-0.25
7.336,-0.44
7.338,-0.355
7.34,-0.22
7.342,-0.205
7.344,-0.19
7.346,-0.03
7.348,-0.14
7.35,-0.185
7.352,-0.165
7.354,-0.325
7.356,-0.445
7.358,-0.475
7.36,-0.35
7.362,-0.255
7.364,-0.055
7.366,-0.005
7.368,-0.13
7.37,-0.125
7.372,-0.095
7.374,-0.18
7.376,-0.365
7.378,-0.36
7.38,-0.28
7.382,-0.17
7.384,-0.195
7.386,-0.085
7.388,-0.07
7.39,-0.125
7.392,-0.185
7.394,-0.18
7.396,-0.36
7.398,-0.31
7.4,-0.28
7.402,-0.225
7.404,-0.09
7.406,-0.055
7.408,-0.11
7.41,-0.12
7.412,-0.195
7.414,-0.145
7.416,-0.23
7.418,-0.25
7.42,-0.265
7.422,-0.17
7.424,-0.065
7.426,-0.105
7.428,0.045
7.43,-0.125
7.432,-0.125
7.434,-0.16
7.436,-0.235
7.438,-0.26
7.44,-0.185
7.442,-0.18
7.444,-0.04
7.446,0.065
7.448,0.005
7.45,-0.02
7.452,-0.205
7.454,-0.21
7.456,-0.155
7.458,-0.295
7.46,-0.06
7.462,-0.135
7.464,-0.165
7.466,-0.005
7.468,-0.06
7.47,0.025
7.472,-0.12
7.474,-0.215
7.476,-0.3
7.478,-0.175
7.48,-0.06
7.482,-0.115
7.484,0.025
7.486,0.07
7.488,0.125
7.49,0.035
7.492,-0.01
7.494,-0.07
7.496,-0.2
7.498,-0.125
7.5,-0.085
7.502,0.07
7.504,0.11
7.506,0.11
7.508,0.125
7.51,0.035
7.512,-0.095
7.514,-0.195
7.516,-0.075
7.518,-0.145
7.52,-0.09
7.522,0.04
7.524,0.035
7.526,0.075
7.528,0.035
7.53,0.155
7.532,0.03
7.534,-0.215
7.536,-0.22
7.538,-0.15
7.54,-0.14
7.542,-0.1
7.544,0.04
7.546,0.075
7.548,0.06
7.55,0.005
7.552,-0.195
7.554,-0.11
7.556,-0.285
7.558,-0.305
7.56,-0.17
7.562,-0.065
7.564,0.1
7.566,0.165
7.568,-0.035
7.57,-0.13
7.572,-0.175
7.574,-0.22
7.576,-0.225
7.578,-0.25
7.58,-0.265
7.582,-0.1
7.584,-0.13
7.586,-0.08
7.588,-0.06
7.59,-0.135
7.592,-0.225
7.594,-0.39
7.596,-0.235
7.598,-0.23
7.6,-0.205
7.602,-0.055
7.604,0.025
7.606,0.055
7.608,-0.12
7.61,-0.18
7.612,-0.22
7.614,-0.33
7.616,-0.32
7.618,-0.315
7.62,-0.225
7.622,-0.13
7.624,-0.065
7.626,-0.06
7.628,0.01
7.63,-0.01
7.632,-0.19
7.634,-0.37
7.636,-0.255
7.638,-0.145
7.64,-0.165
7.642,-0.19
7.644,-0.06
7.646,-0.04
7.648,-0.015
7.65,-0.225
7.652,-0.115
7.654,-0.37
7.656,-0.23
7.658,-0.31
7.66,-0.125
7.662,-0.205
7.664,0.035
7.666,-0.025
7.668,-0.03
7.67,-0.135
7.672,-0.11
7.674,-0.345
7.676,-0.32
7.678,-0.225
7.68,-0.185
7.682,-0.165
7.684,0.03
7.686,0.05
7.688,-0.08
7.69,-0.19
7.692,-0.15
7.694,-0.3
7.696,-0.325
7.698,-0.21
7.7,-0.11
7.702,-0.125
7.704,-0.06
7.706,0.005
7.708,-0.07
7.71,-0.055
7.712,-0.145
7.714,-0.325
7.716,-0.16
7.718,-0.39
7.72,-0.23
7.722,-0.06
7.724,-0.005
7.726,0.035
7.728,0
7.73,-0.045
7.732,-0.13
7.734,-0.235
7.736,-0.255
7.738,-0.285
7.74,-0.25
7.742,-0.19
7.744,0.06
7.746,0.065
7.748,-0.11
7.75,-0.175
7.752,-0.17
7.754,-0.315
7.756,-0.275
7.758,-0.165
7.76,-0.19
7.762,-0.045
7.764,-0.09
7.766,0.015
7.768,-0.08
7.77,-0.17
7.772,-0.23
7.774,-0.265
7.776,-0.24
7.778,-0.22
7.78,-0.235
7.782,-0.125
7.784,0.005
7.786,-0.05
7.788,-0.07
7.79,-0.1
7.792,-0.215
7.794,-0.23
7.796,-0.21
7.798,-0.315
7.8,-0.03
7.802,-0.045
7.804,0.085
7.806,-0.085
7.808,-0.11
7.81,-0.09
7.812,-0.25
7.814,-0.265
7.816,-0.235
7.818,-0.085
7.82,0.025
7.822,0.075
7.824,0.07
7.826,0
7.828,-0.025
7.83,-0.1
7.832,-0.195
7.834,-0.21
7.836,-0.28
7.838,-0.14
7.84,-0.035
7.842,-0.155
7.844,-0.02
7.846,-0.08
7.848,-0.21
7.85,-0.175
7.852,-0.295
7.854,-0.305
7.856,-0.305
7.858,-0.17
7.86,-0.145
7.862,-0.04
7.864,-0.01
7.866,-0.015
7.868,-0.2
7.87,-0.09
7.872,-0.225
7.874,-0.295
7.876,-0.215
7.878,-0.16
7.88,-0.17
7.882,-0.02
7.884,-0.045
7.886,-0.065
7.888,-0.23
7.89,-0.295
7.892,-0.39
7.894,-0.365
7.896,-0.37
7.898,-0.215
7.9,-0.13
7.902,-0.105
7.904,0.065
7.906,0.03
7.908,-0.075
7.91,-0.04
7.912,-0.03
7.914,-0.05
7.916,-0.075
7.918,0.195
7.92,0.27
7.922,0.505
7.924,0.63
7.926,0.625
7.928,0.65
7.93,0.435
7.932,0.275
7.934,0.11
7.936,-0.155
7.938,-0.165
7.94,-0.2
7.942,-0.035
7.944,-0.135
7.946,-0.185
7.948,-0.185
7.95,-0.29
7.952,-0.315
7.954,-0.305
7.956,-0.375
7.958,-0.26
7.96,-0.14
7.962,-0.035
7.964,-0.11
7.966,-0.16
7.968,-0.285
7.97,-0.25
7.972,-0.36
7.974,-0.33
7.976,-0.33
7.978,-0.15
7.98,-0.15
7.982,-0.03
7.984,0.075
7.986,-0.14
7.988,-0.22
7.99,-0.26
7.992,-0.375
7.994,-0.275
7.996,-0.265
7.998,-0.14
8,-0.18
8.002,-0.01
8.004,0.035
8.006,-0.11
8.008,-0.32
8.01,-0.28
8.012,-0.25
8.014,-0.235
8.016,-0.265
8.018,-0.205
8.02,-0.04
8.022,-0.06
8.024,-0.065
8.026,-0.07
8.028,-0.135
8.03,-0.21
8.032,-0.205
8.034,-0.34
8.036,-0.355
8.038,-0.19
8.04,-0.19
8.042,-0.055
8.044,0.075
8.046,-0.075
8.048,-0.21
8.05,-0.26
8.052,-0.285
8.054,-0.305
8.056,-0.24
8.058,-0.205
8.06,-0.01
8.062,0.025
8.064,-0.11
8.066,-0.215
8.068,-0.145
8.07,-0.24
8.072,-0.365
8.074,-0.24
8.076,-0.14
8.078,-0.145
8.08,-0.035
8.082,-0.005
8.084,0.005
8.086,-0.04
8.088,-0.12
8.09,-0.25
8.092,-0.315
8.094,-0.34
8.096,-0.365
8.098,-0.095
8.1,-0.11
8.102,0
8.104,0.095
8.106,-0.06
8.108,-0.04
8.11,-0.17
8.112,-0.285
8.114,-0.14
8.116,-0.09
8.118,-0.155
8.12,-0.04
8.122,0.04
8.124,0.03
8.126,0.125
8.128,-0.095
8.13,-0.21
8.132,-0.195
8.134,-0.165
8.136,-0.155
8.138,-0.015
8.14,0.085
8.142,0.07
8.144,0.035
8.146,0
8.148,-0.105
8.15,-0.305
8.152,-0.17
8.154,-0.16
8.156,-0.14
8.158,-0.03
8.16,0.09
8.162,0.075
8.164,0.09
8.166,0.06
8.168,-0.095
8.17,-0.24
8.172,-0.295
8.174,-0.2
8.176,-0.125
8.178,0.065
8.18,0.03
8.182,0.08
8.184,0.025
8.186,-0.055
8.188,-0.07
8.19,-0.215
8.192,-0.095
8.194,-0.13
8.196,-0.19
8.198,-0.03
8.2,0.09
8.202,-0.01
8.204,-0.04
8.206,-0.2
8.208,-0.265
8.21,-0.45
8.212,-0.45
8.214,-0.295
8.216,-0.265
8.218,-0.18
8.22,0.055
8.222,-0.025
8.224,-0.06
8.226,-0.25
8.228,-0.19
8.23,-0.31
8.232,-0.28
8.234,-0.34
8.236,-0.23
8.238,-0.185
8.24,-0.105
8.242,-0.055
8.244,-0.24
8.246,-0.09
8.248,-0.2
8.25,-0.315
8.252,-0.355
8.254,-0.41
8.256,-0.32
8.258,-0.21
8.26,-0.07
8.262,-0.075
8.264,-0.025
8.266,-0.185
8.268,-0.3
8.27,-0.4
8.272,-0.37
8.274,-0.385
8.276,-0.145
8.278,-0.17
8.28,-0.115
8.282,-0.11
8.284,-0.105
8.286,-0.13
8.288,-0.235
8.29,-0.46
8.292,-0.39
8.294,-0.325
8.296,-0.265
8.298,-0.155
8.3,-0.125
8.302,-0.065
8.304,-0.09
8.306,-0.24
8.308,-0.265
8.31,-0.42
8.312,-0.475
8.314,-0.38
8.316,-0.25
8.318,-0.29
8.32,-0.15
8.322,-0.13
8.324,-0.08
8.326,-0.145
8.328,-0.085
8.33,-0.205
8.332,-0.38
8.334,-0.33
8.336,-0.28
8.338,-0.155
8.34,-0.14
8.342,-0.075
8.344,-0.07
8.346,-0.175
8.348,-0.365
8.35,-0.295
8.352,-0.33
8.354,-0.38
8.356,-0.175
8.358,-0.14
8.36,-0.205
8.362,-0.14
8.364,-0.125
8.366,-0.19
8.368,-0.27
8.37,-0.345
8.372,-0.475
8.374,-0.29
8.376,-0.105
8.378,-0.145
8.38,-0.125
8.382,-0.155
8.384,-0.08
8.386,-0.16
8.388,-0.33
8.39,-0.355
8.392,-0.32
8.394,-0.39
8.396,-0.26
8.398,-0.215
8.4,-0.105
8.402,-0.165
8.404,-0.215
8.406,-0.29
8.408,-0.32
8.41,-0.41
8.412,-0.315
8.414,-0.225
8.416,-0.23
8.418,-0.155
8.42,-0.085
8.422,-0.1
8.424,-0.22
8.426,-0.26
8.428,-0.435
8.43,-0.43
8.432,-0.345
8.434,-0.425
8.436,-0.19
8.438,-0.185
8.44,-0.155
8.442,-0.22
8.444,-0.125
8.446,-0.185
8.448,-0.365
8.45,-0.265
8.452,-0.385
8.454,-0.345
8.456,-0.26
8.458,-0.025
8.46,-0.07
8.462,-0.115
8.464,-0.25
8.466,-0.335
8.468,-0.37
8.47,-0.435
8.472,-0.39
8.474,-0.265
8.476,-0.17
8.478,-0.115
8.48,-0.115
8.482,-0.15
8.484,-0.14
8.486,-0.275
8.488,-0.23
8.49,-0.22
8.492,-0.36
8.494,-0.175
8.496,0.015
8.498,0.005
8.5,-0.125
8.502,-0.015
8.504,-0.185
8.506,-0.245
8.508,-0.39
8.51,-0.465
8.512,-0.43
8.514,-0.25
8.516,-0.24
8.518,-0.02
8.52,-0.045
8.522,-0.155
8.524,-0.21
8.526,-0.27
8.528,-0.37
8.53,-0.485
8.532,-0.55
8.534,-0.315
8.536,-0.285
8.538,-0.035
8.54,-0.075
8.542,-0.245
8.544,-0.255
8.546,-0.26
8.548,-0.415
8.55,-0.45
8.552,-0.455
8.554,-0.305
8.556,-0.245
8.558,-0.045
8.56,-0.105
8.562,-0.165
8.564,-0.31
8.566,-0.22
8.568,-0.455
8.57,-0.39
8.572,-0.4
8.574,-0.225
8.576,-0.14
8.578,0.015
8.58,0.08
8.582,0.055
8.584,0.075
8.586,0.14
8.588,-0.04
8.59,0.085
8.592,0.265
8.594,0.56
8.596,0.49
8.598,0.58
8.6,0.505
8.602,0.295
8.604,0.265
8.606,-0.09
8.608,-0.355
8.61,-0.44
8.612,-0.38
8.614,-0.315
8.616,-0.345
8.618,-0.2
8.62,-0.17
8.622,-0.15
8.624,-0.33
8.626,-0.325
8.628,-0.505
8.63,-0.44
8.632,-0.33
8.634,-0.365
8.636,-0.27
8.638,-0.12
8.64,-0.145
8.642,-0.24
8.644,-0.17
8.646,-0.35
8.648,-0.475
8.65,-0.46
8.652,-0.365
8.654,-0.265
8.656,-0.255
8.658,-0.03
8.66,-0.02
8.662,-0.125
8.664,-0.27
8.666,-0.4
8.668,-0.525
8.67,-0.375
8.672,-0.45
8.674,-0.32
8.676,-0.265
8.678,-0.165
8.68,-0.16
8.682,-0.145
8.684,-0.195
8.686,-0.395
8.688,-0.35
8.69,-0.46
8.692,-0.41
8.694,-0.38
8.696,-0.13
8.698,-0.025
8.7,-0.235
8.702,-0.31
8.704,-0.305
8.706,-0.295
8.708,-0.32
8.71,-0.46
8.712,-0.39
8.714,-0.275
8.716,-0.21
8.718,-0.04
8.72,-0.145
8.722,-0.2
8.724,-0.275
8.726,-0.29
8.728,-0.42
8.73,-0.36
8.732,-0.38
8.734,-0.345
8.736,-0.15
8.738,-0.16
8.74,-0.165
8.742,-0.275
8.744,-0.265
8.746,-0.35
8.748,-0.415
8.75,-0.355
8.752,-0.24
8.754,-0.3
8.756,-0.155
8.758,-0.03
8.76,-0.14
8.762,-0.225
8.764,-0.295
8.766,-0.485
8.768,-0.435
8.77,-0.305
8.772,-0.33
8.774,-0.195
8.776,-0.125
8.778,-0.065
8.78,-0.17
8.782,-0.195
8.784,-0.235
8.786,-0.485
8.788,-0.35
8.79,-0.27
8.792,-0.205
8.794,-0.115
8.796,-0.085
8.798,-0.005
8.8,-0.135
8.802,-0.09
8.804,-0.21
8.806,-0.305
8.808,-0.22
8.81,-0.285
8.812,-0.225
8.814,-0.17
8.816,0.02
8.818,-0.065
8.82,-0.135
8.822,-0.165
8.824,-0.28
8.826,-0.385
8.828,-0.255
8.83,-0.195
8.832,-0.135
8.834,-0.08
8.836,0.005
8.838,-0.1
8.84,-0.105
8.842,-0.165
8.844,-0.26
8.846,-0.255
8.848,-0.28
8.85,-0.34
8.852,-0.14
8.854,-0.26
8.856,-0.085
8.858,-0.1
8.86,-0.14
8.862,-0.215
8.864,-0.245
8.866,-0.435
8.868,-0.38
8.87,-0.31
8.872,-0.3
8.874,-0.31
8.876,-0.12
8.878,-0.09
8.88,-0.22
8.882,-0.19
8.884,-0.215
8.886,-0.275
8.888,-0.39
8.89,-0.55
8.892,-0.25
8.894,-0.285
8.896,-0.225
8.898,-0.285
8.9,-0.195
8.902,-0.235
8.904,-0.285
8.906,-0.44
8.908,-0.43
8.91,-0.355
8.912,-0.285
8.914,-0.335
8.916,-0.115
8.918,-0.17
8.92,-0.215
8.922,-0.26
8.924,-0.43
8.926,-0.43
8.928,-0.445
8.93,-0.575
8.932,-0.42
8.934,-0.265
8.936,-0.24
8.938,-0.265
8.94,-0.205
8.942,-0.27
8.944,-0.35
8.946,-0.435
8.948,-0.43
8.95,-0.355
8.952,-0.295
8.954,-0.25
8.956,-0.145
8.958,-0.19
8.96,-0.275
8.962,-0.35
8.964,-0.42
8.966,-0.42
8.968,-0.48
8.97,-0.545
8.972,-0.265
8.974,-0.265
8.976,-0.27
8.978,-0.185
8.98,-0.175
8.982,-0.24
8.984,-0.44
8.986,-0.47
8.988,-0.49
8.99,-0.445
8.992,-0.275
8.994,-0.195
8.996,-0.2
8.998,-0.17
9,-0.23
9.002,-0.365
9.004,-0.405
9.006,-0.37
9.008,-0.4
9.01,-0.37
9.012,-0.32
9.014,-0.16
9.016,-0.13
9.018,-0.12
9.02,-0.225
9.022,-0.255
9.024,-0.43
9.026,-0.51
9.028,-0.375
9.03,-0.435
9.032,-0.38
9.034,-0.235
9.036,-0.14
9.038,-0.27
9.04,-0.28
9.042,-0.29
9.044,-0.485
9.046,-0.56
9.048,-0.425
9.05,-0.39
9.052,-0.355
9.054,-0.2
9.056,-0.24
9.058,-0.255
9.06,-0.235
9.062,-0.35
9.064,-0.42
9.066,-0.435
9.068,-0.465
9.07,-0.32
9.072,-0.32
9.074,-0.155
9.076,-0.2
9.078,-0.245
9.08,-0.235
9.082,-0.365
9.084,-0.395
9.086,-0.495
9.088,-0.495
9.09,-0.28
9.092,-0.245
9.094,-0.16
9.096,-0.255
9.098,-0.325
9.1,-0.36
9.102,-0.345
9.104,-0.505
9.106,-0.515
9.108,-0.4
9.11,-0.26
9.112,-0.29
9.114,-0.275
9.116,-0.29
9.118,-0.165
9.12,-0.365
9.122,-0.37
9.124,-0.485
9.126,-0.61
9.128,-0.425
9.13,-0.395
9.132,-0.28
9.134,-0.085
9.136,-0.14
9.138,-0.17
9.14,-0.265
9.142,-0.4
9.144,-0.55
9.146,-0.53
9.148,-0.37
9.15,-0.24
9.152,-0.145
9.154,-0.125
9.156,-0.135
9.158,-0.165
9.16,-0.285
9.162,-0.235
9.164,-0.455
9.166,-0.34
9.168,-0.47
9.17,-0.31
9.172,-0.305
9.174,-0.17
9.176,-0.19
9.178,-0.26
9.18,-0.31
9.182,-0.35
9.184,-0.515
9.186,-0.5
9.188,-0.52
9.19,-0.485
9.192,-0.405
9.194,-0.175
9.196,-0.215
9.198,-0.27
9.2,-0.485
9.202,-0.44
9.204,-0.455
9.206,-0.39
9.208,-0.395
9.21,-0.365
9.212,-0.405
9.214,-0.185
9.216,-0.125
9.218,-0.285
9.22,-0.385
9.222,-0.37
9.224,-0.535
9.226,-0.47
9.228,-0.485
9.23,-0.375
9.232,-0.385
9.234,-0.165
9.236,-0.2
9.238,-0.235
9.24,-0.24
9.242,-0.255
9.244,-0.39
9.246,-0.225
9.248,-0.11
9.25,0.025
9.252,0.095
9.254,0.23
9.256,0.345
9.258,0.465
9.26,0.48
9.262,0.49
9.264,0.07
9.266,0.065
9.268,0.07
9.27,0.02
9.272,-0.21
9.274,-0.335
9.276,-0.22
9.278,-0.39
9.28,-0.45
9.282,-0.465
9.284,-0.47
9.286,-0.39
9.288,-0.35
9.29,-0.355
9.292,-0.275
9.294,-0.235
9.296,-0.185
9.298,-0.33
9.3,-0.545
9.302,-0.5
9.304,-0.58
9.306,-0.515
9.308,-0.615
9.31,-0.385
9.312,-0.23
9.314,-0.15
9.316,-0.23
9.318,-0.215
9.32,-0.315
9.322,-0.47
9.324,-0.49
9.326,-0.435
9.328,-0.385
9.33,-0.325
9.332,-0.275
9.334,-0.3
9.336,-0.345
9.338,-0.44
9.34,-0.345
9.342,-0.51
9.344,-0.55
9.346,-0.45
9.348,-0.515
9.35,-0.43
9.352,-0.075
9.354,-0.235
9.356,-0.29
9.358,-0.405
9.36,-0.33
9.362,-0.47
9.364,-0.45
9.366,-0.38
9.368,-0.345
9.37,-0.335
9.372,-0.265
9.374,-0.26
9.376,-0.28
9.378,-0.325
9.38,-0.35
9.382,-0.57
9.384,-0.46
9.386,-0.395
9.388,-0.43
9.39,-0.315
9.392,-0.22
9.394,-0.235
9.396,-0.25
9.398,-0.34
9.4,-0.3
9.402,-0.46
9.404,-0.43
9.406,-0.435
9.408,-0.405
9.41,-0.315
9.412,-0.155
9.414,-0.15
9.416,-0.27
9.418,-0.32
9.42,-0.315
9.422,-0.4
9.424,-0.45
9.426,-0.43
9.428,-0.4
9.43,-0.265
9.432,-0.155
9.434,-0.21
9.436,-0.33
9.438,-0.385
9.44,-0.37
9.442,-0.44
9.444,-0.34
9.446,-0.295
9.448,-0.24
9.45,-0.435
9.452,-0.1
9.454,-0.175
9.456,-0.385
9.458,-0.19
9.46,-0.24
9.462,-0.415
9.464,-0.465
9.466,-0.39
9.468,-0.315
9.47,-0.23
9.472,-0.145
9.474,-0.235
9.476,-0.18
9.478,-0.16
9.48,-0.19
9.482,-0.245
9.484,-0.265
9.486,-0.27
9.488,-0.135
9.49,-0.225
9.492,-0.1
9.494,-0.16
9.496,-0.13
9.498,-0.2
9.5,-0.24
9.502,-0.42
9.504,-0.39
9.506,-0.365
9.508,-0.285
9.51,-0.18
9.512,-0.175
9.514,-0.06
9.516,-0.215
9.518,-0.175
9.52,-0.28
9.522,-0.375
9.524,-0.37
9.526,-0.52
9.528,-0.28
9.53,-0.35
9.532,-0.18
9.534,-0.16
9.536,-0.305
9.538,-0.405
9.54,-0.29
9.542,-0.47
9.544,-0.445
9.546,-0.455
9.548,-0.375
9.55,-0.315
9.552,-0.19
9.554,-0.095
9.556,-0.32
9.558,-0.48
9.56,-0.43
9.562,-0.38
9.564,-0.52
9.566,-0.395
9.568,-0.25
9.57,-0.3
9.572,-0.19
9.574,-0.27
9.576,-0.39
9.578,-0.485
9.58,-0.465
9.582,-0.565
9.584,-0.575
9.586,-0.485
9.588,-0.37
9.59,-0.29
9.592,-0.13
9.594,-0.24
9.596,-0.35
9.598,-0.435
9.6,-0.48
9.602,-0.65
9.604,-0.665
9.606,-0.39
9.608,-0.42
9.61,-0.33
9.612,-0.335
9.614,-0.165
9.616,-0.365
9.618,-0.375
9.62,-0.43
9.622,-0.475
9.624,-0.39
9.626,-0.37
9.628,-0.345
9.63,-0.245
9.632,-0.24
9.634,-0.35
9.636,-0.295
9.638,-0.365
9.64,-0.465
9.642,-0.455
9.644,-0.54
9.646,-0.415
9.648,-0.405
9.65,-0.26
9.652,-0.245
9.654,-0.155
9.656,-0.31
9.658,-0.295
9.66,-0.465
9.662,-0.515
9.664,-0.445
9.666,-0.395
9.668,-0.395
9.67,-0.215
9.672,-0.295
9.674,-0.325
9.676,-0.355
9.678,-0.44
9.68,-0.43
9.682,-0.505
9.684,-0.57
9.686,-0.55
9.688,-0.385
9.69,-0.29
9.692,-0.205
9.694,-0.29
9.696,-0.335
9.698,-0.31
9.7,-0.47
9.702,-0.49
9.704,-0.49
9.706,-0.5
9.708,-0.45
9.71,-0.215
9.712,-0.245
9.714,-0.22
9.716,-0.375
9.718,-0.415
9.72,-0.54
9.722,-0.345
9.724,-0.46
9.726,-0.405
9.728,-0.365
9.73,-0.26
9.732,-0.145
9.734,-0.27
9.736,-0.42
9.738,-0.4
9.74,-0.485
9.742,-0.51
9.744,-0.43
9.746,-0.305
9.748,-0.445
9.75,-0.245
9.752,-0.28
9.754,-0.43
9.756,-0.335
9.758,-0.375
9.76,-0.465
9.762,-0.525
9.764,-0.46
9.766,-0.345
9.768,-0.415
9.77,-0.195
9.772,-0.2
9.774,-0.26
9.776,-0.305
9.778,-0.445
9.78,-0.47
9.782,-0.4
9.784,-0.495
9.786,-0.44
9.788,-0.375
9.79,-0.365
9.792,-0.225
9.794,-0.385
9.796,-0.465
9.798,-0.285
9.8,-0.59
9.802,-0.62
9.804,-0.45
9.806,-0.43
9.808,-0.395
9.81,-0.32
9.812,-0.285
9.814,-0.26
9.816,-0.335
9.818,-0.34
9.82,-0.415
9.822,-0.465
9.824,-0.395
9.826,-0.34
9.828,-0.285
9.83,-0.19
9.832,-0.1
9.834,-0.185
9.836,-0.27
9.838,-0.335
9.84,-0.5
9.842,-0.45
9.844,-0.365
9.846,-0.215
9.848,-0.185
9.85,-0.165
9.852,-0.22
9.854,-0.185
9.856,-0.36
9.858,-0.455
9.86,-0.475
9.862,-0.545
9.864,-0.475
9.866,-0.505
9.868,-0.285
9.87,-0.235
9.872,-0.325
9.874,-0.43
9.876,-0.39
9.878,-0.515
9.88,-0.545
9.882,-0.415
9.884,-0.365
9.886,-0.46
9.888,-0.175
9.89,-0.205
9.892,-0.27
9.894,-0.315
9.896,-0.43
9.898,-0.59
9.9,-0.655
9.902,-0.515
9.904,-0.405
9.906,-0.34
9.908,-0.27
9.91,-0.265
9.912,-0.155
9.914,-0.275
9.916,-0.31
9.918,-0.465
9.92,-0.5
9.922,-0.61
9.924,-0.465
9.926,-0.26
9.928,-0.125
9.93,-0.03
9.932,-0.16
9.934,-0.085
9.936,-0.1
9.938,-0.03
9.94,-0.04
9.942,0.26
9.944,0.385
9.946,0.475
9.948,0.595
9.95,0.395
9.952,0.325
9.954,0.065
9.956,-0.155
9.958,-0.415
9.96,-0.54
9.962,-0.575
9.964,-0.53
9.966,-0.445
9.968,-0.23
9.97,-0.185
9.972,-0.24
9.974,-0.475
9.976,-0.445
9.978,-0.54
9.98,-0.485
9.982,-0.57
9.984,-0.34
9.986,-0.295
9.988,-0.18
9.99,-0.275
9.992,-0.31
9.994,-0.385
9.996,-0.48
9.998,-0.495
