0,-0.17
0.002,-0.07
0.004,-0.085
0.006,-0.09
0.008,-0.215
0.01,-0.24
0.012,-0.325
0.014,-0.315
0.016,-0.275
0.018,-0.2
0.02,-0.185
0.022,-0.075
0.024,-0.09
0.026,-0.135
0.028,-0.185
0.03,-0.25
0.032,-0.33
0.034,-0.305
0.036,-0.285
0.038,-0.175
0.04,-0.115
0.042,-0.03
0.044,-0.05
0.046,-0.155
0.048,-0.265
0.05,-0.27
0.052,-0.335
0.054,-0.285
0.056,-0.24
0.058,-0.16
0.06,-0.16
0.062,-0.05
0.064,-0.095
0.066,-0.155
0.068,-0.255
0.07,-0.29
0.072,-0.38
0.074,-0.34
0.076,-0.28
0.078,-0.18
0.08,-0.145
0.082,-0.06
0.084,-0.065
0.086,-0.13
0.088,-0.215
0.09,-0.265
0.092,-0.305
0.094,-0.295
0.096,-0.22
0.098,-0.165
0.1,-0.125
0.102,-0.035
0.104,-0.045
0.106,-0.11
0.108,-0.215
0.11,-0.26
0.112,-0.285
0.114,-0.225
0.116,-0.175
0.118,-0.07
0.12,-0.065
0.122,-0.04
0.124,-0.11
0.126,-0.16
0.128,-0.22
0.13,-0.265
0.132,-0.275
0.134,-0.25
0.136,-0.15
0.138,-0.1
0.14,-0.035
0.142,0.005
0.144,-0.03
0.146,-0.075
0.148,-0.155
0.15,-0.205
0.152,-0.255
0.154,-0.235
0.156,-0.13
0.158,-0.035
0.16,-0.015
0.162,0.04
0.164,0.02
0.166,-0.025
0.168,-0.11
0.17,-0.165
0.172,-0.165
0.174,-0.165
0.176,-0.065
0.178,-0.03
0.18,0.03
0.182,0.085
0.184,0.075
0.186,-0.03
0.188,-0.065
0.19,-0.095
0.192,-0.1
0.194,-0.09
0.196,-0.03
0.198,0.05
0.2,0.115
0.202,0.12
0.204,0.115
0.206,0.015
0.208,-0.04
0.21,-0.105
0.212,-0.08
0.214,-0.055
0.216,0.035
0.218,0.06
0.22,0.15
0.222,0.13
0.224,0.08
0.226,-0.04
0.228,-0.03
0.23,-0.1
0.232,-0.09
0.234,-0.07
0.236,0.015
0.238,0.03
0.24,0.12
0.242,0.09
0.244,0.065
0.246,-0.005
0.248,-0.06
0.25,-0.12
0.252,-0.14
0.254,-0.12
0.256,-0.045
0.258,0.02
0.26,0.11
0.262,0.075
0.264,0
0.266,-0.1
0.268,-0.115
0.27,-0.225
0.272,-0.18
0.274,-0.14
0.276,-0.06
0.278,-0.025
0.28,0.075
0.282,0.02
0.284,-0.06
0.286,-0.14
0.288,-0.155
0.29,-0.27
0.292,-0.25
0.294,-0.225
0.296,-0.155
0.298,-0.1
0.3,-0.03
0.302,-0.045
0.304,-0.1
0.306,-0.175
0.308,-0.235
0.31,-0.315
0.312,-0.27
0.314,-0.255
0.316,-0.125
0.318,-0.08
0.32,-0.025
0.322,-0.065
0.324,-0.12
0.326,-0.2
0.328,-0.225
0.33,-0.335
0.332,-0.265
0.334,-0.215
0.336,-0.125
0.338,-0.085
0.34,-0.015
0.342,-0.1
0.344,-0.165
0.346,-0.245
0.348,-0.265
0.35,-0.32
0.352,-0.295
0.354,-0.26
0.356,-0.18
0.358,-0.175
0.36,-0.025
0.362,-0.035
0.364,-0.14
0.366,-0.23
0.368,-0.24
0.37,-0.33
0.372,-0.3
0.374,-0.225
0.376,-0.15
0.378,-0.14
0.38,-0.06
0.382,-0.08
0.384,-0.165
0.386,-0.245
0.388,-0.275
0.39,-0.34
0.392,-0.335
0.394,-0.25
0.396,-0.175
0.398,-0.125
0.4,-0.055
0.402,-0.085
0.404,-0.21
0.406,-0.25
0.408,-0.335
0.41,-0.35
0.412,-0.345
0.414,-0.255
0.416,-0.19
0.418,-0.145
0.42,-0.1
0.422,-0.13
0.424,-0.225
0.426,-0.265
0.428,-0.305
0.43,-0.37
0.432,-0.33
0.434,-0.24
0.436,-0.185
0.438,-0.145
0.44,-0.11
0.442,-0.16
0.444,-0.245
0.446,-0.28
0.448,-0.35
0.45,-0.385
0.452,-0.325
0.454,-0.24
0.456,-0.19
0.458,-0.13
0.46,-0.12
0.462,-0.165
0.464,-0.24
0.466,-0.27
0.468,-0.34
0.47,-0.35
0.472,-0.34
0.474,-0.225
0.476,-0.185
0.478,-0.125
0.48,-0.12
0.482,-0.165
0.484,-0.25
0.486,-0.285
0.488,-0.38
0.49,-0.36
0.492,-0.325
0.494,-0.235
0.496,-0.23
0.498,-0.135
0.5,-0.125
0.502,-0.19
0.504,-0.285
0.506,-0.315
0.508,-0.395
0.51,-0.37
0.512,-0.34
0.514,-0.24
0.516,-0.205
0.518,-0.135
0.52,-0.135
0.522,-0.17
0.524,-0.265
0.526,-0.3
0.528,-0.38
0.53,-0.35
0.532,-0.325
0.534,-0.245
0.536,-0.2
0.538,-0.16
0.54,-0.19
0.542,-0.2
0.544,-0.31
0.546,-0.31
0.548,-0.39
0.55,-0.345
0.552,-0.33
0.554,-0.23
0.556,-0.2
0.558,-0.12
0.56,-0.155
0.562,-0.18
0.564,-0.225
0.566,-0.305
0.568,-0.385
0.57,-0.355
0.572,-0.335
0.574,-0.24
0.576,-0.19
0.578,-0.125
0.58,-0.165
0.582,-0.215
0.584,-0.275
0.586,-0.31
0.588,-0.405
0.59,-0.365
0.592,-0.33
0.594,-0.25
0.596,-0.215
0.598,-0.105
0.6,-0.125
0.602,-0.205
0.604,-0.31
0.606,-0.355
0.608,-0.395
0.61,-0.37
0.612,-0.32
0.614,-0.225
0.616,-0.215
0.618,-0.13
0.62,-0.15
0.622,-0.205
0.624,-0.31
0.626,-0.315
0.628,-0.37
0.63,-0.37
0.632,-0.28
0.634,-0.21
0.636,-0.18
0.638,-0.095
0.64,-0.12
0.642,-0.21
0.644,-0.355
0.646,-0.38
0.648,-0.445
0.65,-0.405
0.652,-0.305
0.654,-0.24
0.656,-0.195
0.658,-0.145
0.66,-0.165
0.662,-0.21
0.664,-0.315
0.666,-0.365
0.668,-0.425
0.67,-0.39
0.672,-0.275
0.674,-0.2
0.676,-0.165
0.678,-0.135
0.68,-0.16
0.682,-0.235
0.684,-0.3
0.686,-0.355
0.688,-0.43
0.69,-0.435
0.692,-0.325
0.694,-0.25
0.696,-0.185
0.698,-0.13
0.7,-0.155
0.702,-0.24
0.704,-0.315
0.706,-0.38
0.708,-0.4
0.71,-0.33
0.712,-0.285
0.714,-0.26
0.716,-0.21
0.718,-0.13
0.72,-0.15
0.722,-0.255
0.724,-0.335
0.726,-0.4
0.728,-0.425
0.73,-0.4
0.732,-0.285
0.734,-0.23
0.736,-0.175
0.738,-0.15
0.74,-0.16
0.742,-0.245
0.744,-0.29
0.746,-0.375
0.748,-0.39
0.75,-0.355
0.752,-0.27
0.754,-0.215
0.756,-0.165
0.758,-0.12
0.76,-0.18
0.762,-0.325
0.764,-0.355
0.766,-0.395
0.768,-0.38
0.77,-0.365
0.772,-0.275
0.774,-0.195
0.776,-0.12
0.778,-0.145
0.78,-0.215
0.782,-0.315
0.784,-0.305
0.786,-0.395
0.788,-0.375
0.79,-0.315
0.792,-0.235
0.794,-0.19
0.796,-0.1
0.798,-0.105
0.8,-0.115
0.802,-0.225
0.804,-0.29
0.806,-0.375
0.808,-0.335
0.81,-0.28
0.812,-0.17
0.814,-0.165
0.816,-0.095
0.818,-0.105
0.82,-0.175
0.822,-0.23
0.824,-0.28
0.826,-0.37
0.828,-0.315
0.83,-0.27
0.832,-0.175
0.834,-0.135
0.836,-0.02
0.838,-0.04
0.84,-0.07
0.842,-0.195
0.844,-0.275
0.846,-0.345
0.848,-0.32
0.85,-0.295
0.852,-0.21
0.854,-0.205
0.856,-0.05
0.858,-0.11
0.86,-0.18
0.862,-0.245
0.864,-0.28
0.866,-0.39
0.868,-0.37
0.87,-0.315
0.872,-0.24
0.874,-0.195
0.876,-0.115
0.878,-0.145
0.88,-0.215
0.882,-0.315
0.884,-0.34
0.886,-0.42
0.888,-0.395
0.89,-0.315
0.892,-0.225
0.894,-0.195
0.896,-0.125
0.898,-0.15
0.9,-0.25
0.902,-0.31
0.904,-0.33
0.906,-0.415
0.908,-0.39
0.91,-0.35
0.912,-0.3
0.914,-0.245
0.916,-0.165
0.918,-0.14
0.92,-0.185
0.922,-0.235
0.924,-0.2
0.926,-0.255
0.928,-0.235
0.93,-0.175
0.932,-0.085
0.934,-0.07
0.936,0.01
0.938,-0.05
0.94,-0.17
0.942,-0.27
0.944,-0.445
0.946,-0.595
0.948,-0.585
0.95,-0.54
0.952,-0.39
0.954,-0.345
0.956,-0.32
0.958,-0.31
0.96,-0.35
0.962,-0.37
0.964,-0.4
0.966,-0.43
0.968,-0.385
0.97,-0.315
0.972,-0.24
0.974,-0.225
0.976,-0.16
0.978,-0.15
0.98,-0.22
0.982,-0.285
0.984,-0.33
0.986,-0.37
0.988,-0.395
0.99,-0.325
0.992,-0.245
0.994,-0.185
0.996,-0.155
0.998,-0.16
1,-0.23
1.002,-0.295
1.004,-0.32
1.006,-0.36
1.008,-0.345
1.01,-0.255
1.012,-0.19
1.014,-0.14
1.016,-0.105
1.018,-0.135
1.02,-0.23
1.022,-0.275
1.024,-0.33
1.026,-0.345
1.028,-0.31
1.03,-0.235
1.032,-0.185
1.034,-0.11
1.036,-0.08
1.038,-0.135
1.04,-0.235
1.042,-0.275
1.044,-0.335
1.046,-0.32
1.048,-0.295
1.05,-0.22
1.052,-0.185
1.054,-0.1
1.056,-0.09
1.058,-0.125
1.06,-0.25
1.062,-0.265
1.064,-0.35
1.066,-0.335
1.068,-0.315
1.07,-0.21
1.072,-0.155
1.074,-0.105
1.076,-0.08
1.078,-0.14
1.08,-0.22
1.082,-0.27
1.084,-0.335
1.086,-0.3
1.088,-0.29
1.09,-0.215
1.092,-0.185
1.094,-0.105
1.096,-0.08
1.098,-0.135
1.1,-0.205
1.102,-0.22
1.104,-0.305
1.106,-0.27
1.108,-0.25
1.11,-0.19
1.112,-0.105
1.114,-0.045
1.116,-0.045
1.118,-0.105
1.12,-0.205
1.122,-0.245
1.124,-0.33
1.126,-0.285
1.128,-0.24
1.13,-0.125
1.132,-0.09
1.134,-0.01
1.136,-0.035
1.138,-0.13
1.14,-0.215
1.142,-0.24
1.144,-0.315
1.146,-0.275
1.148,-0.205
1.15,-0.13
1.152,-0.09
1.154,-0.01
1.156,-0.02
1.158,-0.06
1.16,-0.12
1.162,-0.155
1.164,-0.25
1.166,-0.24
1.168,-0.155
1.17,-0.07
1.172,-0.04
1.174,0.07
1.176,0.035
1.178,-0.04
1.18,-0.095
1.182,-0.12
1.184,-0.21
1.186,-0.165
1.188,-0.09
1.19,-0.01
1.192,0.02
1.194,0.11
1.196,0.1
1.198,0.04
1.2,-0.05
1.202,-0.07
1.204,-0.13
1.206,-0.125
1.208,-0.03
1.21,0.03
1.212,0.075
1.214,0.16
1.216,0.135
1.218,0.055
1.22,-0.01
1.222,-0.05
1.224,-0.135
1.226,-0.09
1.228,0.01
1.23,0.085
1.232,0.075
1.234,0.115
1.236,0.13
1.238,0.055
1.24,-0.02
1.242,-0.06
1.244,-0.115
1.246,-0.095
1.248,-0.035
1.25,0.055
1.252,0.1
1.254,0.16
1.256,0.15
1.258,0.065
1.26,-0.02
1.262,-0.06
1.264,-0.145
1.266,-0.14
1.268,-0.055
1.27,0
1.272,0.055
1.274,0.08
1.276,0.025
1.278,-0.075
1.28,-0.155
1.282,-0.21
1.284,-0.275
1.286,-0.295
1.288,-0.195
1.29,-0.15
1.292,-0.115
1.294,-0.09
1.296,-0.105
1.298,-0.22
1.3,-0.265
1.302,-0.315
1.304,-0.345
1.306,-0.32
1.308,-0.245
1.31,-0.135
1.312,-0.08
1.314,-0.105
1.316,-0.135
1.318,-0.23
1.32,-0.31
1.322,-0.405
1.324,-0.405
1.326,-0.36
1.328,-0.27
1.33,-0.23
1.332,-0.15
1.334,-0.145
1.336,-0.18
1.338,-0.26
1.34,-0.32
1.342,-0.43
1.344,-0.42
1.346,-0.35
1.348,-0.27
1.35,-0.225
1.352,-0.14
1.354,-0.12
1.356,-0.145
1.358,-0.28
1.36,-0.35
1.362,-0.415
1.364,-0.39
1.366,-0.335
1.368,-0.23
1.37,-0.2
1.372,-0.11
1.374,-0.12
1.376,-0.17
1.378,-0.275
1.38,-0.31
1.382,-0.405
1.384,-0.365
1.386,-0.335
1.388,-0.26
1.39,-0.215
1.392,-0.11
1.394,-0.135
1.396,-0.19
1.398,-0.28
1.4,-0.31
1.402,-0.405
1.404,-0.345
1.406,-0.29
1.408,-0.215
1.41,-0.205
1.412,-0.125
1.414,-0.14
1.416,-0.175
1.418,-0.285
1.42,-0.3
1.422,-0.37
1.424,-0.345
1.426,-0.295
1.428,-0.215
1.43,-0.165
1.432,-0.075
1.434,-0.11
1.436,-0.17
1.438,-0.28
1.44,-0.3
1.442,-0.415
1.444,-0.36
1.446,-0.27
1.448,-0.185
1.45,-0.195
1.452,-0.1
1.454,-0.14
1.456,-0.195
1.458,-0.265
1.46,-0.27
1.462,-0.36
1.464,-0.345
1.466,-0.305
1.468,-0.215
1.47,-0.225
1.472,-0.145
1.474,-0.19
1.476,-0.245
1.478,-0.3
1.48,-0.315
1.482,-0.405
1.484,-0.37
1.486,-0.325
1.488,-0.225
1.49,-0.175
1.492,-0.08
1.494,-0.12
1.496,-0.195
1.498,-0.28
1.5,-0.36
1.502,-0.395
1.504,-0.38
1.506,-0.31
1.508,-0.225
1.51,-0.18
1.512,-0.125
1.514,-0.15
1.516,-0.235
1.518,-0.31
1.52,-0.35
1.522,-0.375
1.524,-0.34
1.526,-0.275
1.528,-0.22
1.53,-0.185
1.532,-0.145
1.534,-0.145
1.536,-0.245
1.538,-0.315
1.54,-0.345
1.542,-0.415
1.544,-0.405
1.546,-0.32
1.548,-0.24
1.55,-0.195
1.552,-0.15
1.554,-0.165
1.556,-0.23
1.558,-0.3
1.56,-0.35
1.562,-0.39
1.564,-0.375
1.566,-0.255
1.568,-0.2
1.57,-0.17
1.572,-0.14
1.574,-0.19
1.576,-0.275
1.578,-0.325
1.58,-0.41
1.582,-0.42
1.584,-0.375
1.586,-0.27
1.588,-0.21
1.59,-0.155
1.592,-0.135
1.594,-0.18
1.596,-0.25
1.598,-0.28
1.6,-0.36
1.602,-0.38
1.604,-0.37
1.606,-0.26
1.608,-0.19
1.61,-0.145
1.612,-0.14
1.614,-0.2
1.616,-0.275
1.618,-0.32
1.62,-0.395
1.622,-0.415
1.624,-0.375
1.626,-0.29
1.628,-0.255
1.63,-0.165
1.632,-0.17
1.634,-0.205
1.636,-0.29
1.638,-0.31
1.64,-0.41
1.642,-0.365
1.644,-0.305
1.646,-0.24
1.648,-0.24
1.65,-0.165
1.652,-0.18
1.654,-0.22
1.656,-0.295
1.658,-0.35
1.66,-0.445
1.662,-0.425
1.664,-0.365
1.666,-0.28
1.668,-0.24
1.67,-0.135
1.672,-0.15
1.674,-0.2
1.676,-0.29
1.678,-0.31
1.68,-0.41
1.682,-0.365
1.684,-0.335
1.686,-0.24
1.688,-0.225
1.69,-0.14
1.692,-0.175
1.694,-0.21
1.696,-0.29
1.698,-0.345
1.7,-0.415
1.702,-0.36
1.704,-0.325
1.706,-0.2
1.708,-0.16
1.71,-0.085
1.712,-0.155
1.714,-0.23
1.716,-0.325
1.718,-0.335
1.72,-0.445
1.722,-0.405
1.724,-0.355
1.726,-0.275
1.728,-0.23
1.73,-0.14
1.732,-0.17
1.734,-0.24
1.736,-0.33
1.738,-0.355
1.74,-0.43
1.742,-0.38
1.744,-0.33
1.746,-0.28
1.748,-0.23
1.75,-0.145
1.752,-0.175
1.754,-0.235
1.756,-0.32
1.758,-0.345
1.76,-0.415
1.762,-0.4
1.764,-0.345
1.766,-0.23
1.768,-0.19
1.77,-0.155
1.772,-0.145
1.774,-0.215
1.776,-0.305
1.778,-0.35
1.78,-0.415
1.782,-0.395
1.784,-0.3
1.786,-0.215
1.788,-0.21
1.79,-0.135
1.792,-0.16
1.794,-0.235
1.796,-0.305
1.798,-0.38
1.8,-0.44
1.802,-0.37
1.804,-0.3
1.806,-0.225
1.808,-0.195
1.81,-0.145
1.812,-0.165
1.814,-0.22
1.816,-0.29
1.818,-0.335
1.82,-0.37
1.822,-0.345
1.824,-0.24
1.826,-0.17
1.828,-0.16
1.83,-0.115
1.832,-0.155
1.834,-0.22
1.836,-0.3
1.838,-0.33
1.84,-0.36
1.842,-0.35
1.844,-0.26
1.846,-0.205
1.848,-0.165
1.85,-0.135
1.852,-0.205
1.854,-0.28
1.856,-0.31
1.858,-0.35
1.86,-0.37
1.862,-0.36
1.864,-0.295
1.866,-0.24
1.868,-0.195
1.87,-0.18
1.872,-0.215
1.874,-0.305
1.876,-0.34
1.878,-0.4
1.88,-0.39
1.882,-0.36
1.884,-0.26
1.886,-0.23
1.888,-0.185
1.89,-0.185
1.892,-0.2
1.894,-0.31
1.896,-0.355
1.898,-0.42
1.9,-0.425
1.902,-0.39
1.904,-0.28
1.906,-0.25
1.908,-0.165
1.91,-0.17
1.912,-0.21
1.914,-0.31
1.916,-0.32
1.918,-0.385
1.92,-0.38
1.922,-0.4
1.924,-0.32
1.926,-0.285
1.928,-0.205
1.93,-0.18
1.932,-0.2
1.934,-0.25
1.936,-0.23
1.938,-0.295
1.94,-0.25
1.942,-0.22
1.944,-0.145
1.946,-0.105
1.948,-0.05
1.95,-0.115
1.952,-0.18
1.954,-0.35
1.956,-0.485
1.958,-0.61
1.96,-0.6
1.962,-0.565
1.964,-0.475
1.966,-0.45
1.968,-0.355
1.97,-0.38
1.972,-0.38
1.974,-0.445
1.976,-0.44
1.978,-0.485
1.98,-0.445
1.982,-0.39
1.984,-0.29
1.986,-0.275
1.988,-0.185
1.99,-0.245
1.992,-0.3
1.994,-0.36
1.996,-0.38
1.998,-0.47
2,-0.395
2.002,-0.36
2.004,-0.255
2.006,-0.255
2.008,-0.17
2.01,-0.2
2.012,-0.245
2.014,-0.335
2.016,-0.36
2.018,-0.435
2.02,-0.39
2.022,-0.32
2.024,-0.24
2.026,-0.21
2.028,-0.145
2.03,-0.165
2.032,-0.25
2.034,-0.34
2.036,-0.36
2.038,-0.44
2.04,-0.395
2.042,-0.33
2.044,-0.235
2.046,-0.225
2.048,-0.17
2.05,-0.2
2.052,-0.235
2.054,-0.325
2.056,-0.345
2.058,-0.385
2.06,-0.355
2.062,-0.29
2.064,-0.21
2.066,-0.19
2.068,-0.12
2.07,-0.16
2.072,-0.265
2.074,-0.34
2.076,-0.375
2.078,-0.42
2.08,-0.39
2.082,-0.315
2.084,-0.235
2.086,-0.16
2.088,-0.095
2.09,-0.11
2.092,-0.185
2.094,-0.24
2.096,-0.26
2.098,-0.35
2.1,-0.305
2.102,-0.27
2.104,-0.22
2.106,-0.18
2.108,-0.125
2.11,-0.14
2.112,-0.23
2.114,-0.275
2.116,-0.345
2.118,-0.345
2.12,-0.34
2.122,-0.28
2.124,-0.185
2.126,-0.15
2.128,-0.115
2.13,-0.145
2.132,-0.255
2.134,-0.32
2.136,-0.385
2.138,-0.42
2.14,-0.39
2.142,-0.28
2.144,-0.22
2.146,-0.15
2.148,-0.18
2.15,-0.22
2.152,-0.305
2.154,-0.325
2.156,-0.38
2.158,-0.375
2.16,-0.34
2.162,-0.28
2.164,-0.215
2.166,-0.14
2.168,-0.1
2.17,-0.135
2.172,-0.225
2.174,-0.26
2.176,-0.31
2.178,-0.32
2.18,-0.275
2.182,-0.17
2.184,-0.125
2.186,-0.04
2.188,-0.045
2.19,-0.12
2.192,-0.165
2.194,-0.21
2.196,-0.255
2.198,-0.22
2.2,-0.185
2.202,-0.09
2.204,-0.05
2.206,0.01
2.208,0.01
2.21,-0.015
2.212,-0.115
2.214,-0.15
2.216,-0.245
2.218,-0.2
2.22,-0.16
2.222,-0.06
2.224,-0.01
2.226,0.06
2.228,0.045
2.23,0.005
2.232,-0.065
2.234,-0.1
2.236,-0.195
2.238,-0.145
2.24,-0.135
2.242,-0.045
2.244,0
2.246,0.11
2.248,0.055
2.25,0.015
2.252,-0.09
2.254,-0.105
2.256,-0.18
2.258,-0.18
2.26,-0.14
2.262,-0.07
2.264,-0.04
2.266,0.065
2.268,0.025
2.27,-0.035
2.272,-0.155
2.274,-0.165
2.276,-0.275
2.278,-0.255
2.28,-0.225
2.282,-0.155
2.284,-0.115
2.286,-0.015
2.288,-0.07
2.29,-0.17
2.292,-0.255
2.294,-0.27
2.296,-0.34
2.298,-0.325
2.3,-0.28
2.302,-0.205
2.304,-0.18
2.306,-0.1
2.308,-0.135
2.31,-0.215
2.312,-0.32
2.314,-0.355
2.316,-0.445
2.318,-0.4
2.32,-0.345
2.322,-0.24
2.324,-0.21
2.326,-0.14
2.328,-0.175
2.33,-0.27
2.332,-0.345
2.334,-0.365
2.336,-0.435
2.338,-0.415
2.34,-0.325
2.342,-0.27
2.344,-0.235
2.346,-0.2
2.348,-0.225
2.35,-0.305
2.352,-0.36
2.354,-0.375
2.356,-0.45
2.358,-0.435
2.36,-0.385
2.362,-0.315
2.364,-0.28
2.366,-0.205
2.368,-0.23
2.37,-0.305
2.372,-0.35
2.374,-0.395
2.376,-0.435
2.378,-0.385
2.38,-0.33
2.382,-0.32
2.384,-0.29
2.386,-0.22
2.388,-0.24
2.39,-0.315
2.392,-0.37
2.394,-0.395
2.396,-0.415
2.398,-0.435
2.4,-0.355
2.402,-0.29
2.404,-0.265
2.406,-0.22
2.408,-0.235
2.41,-0.31
2.412,-0.36
2.414,-0.385
2.416,-0.42
2.418,-0.42
2.42,-0.325
2.422,-0.29
2.424,-0.22
2.426,-0.195
2.428,-0.23
2.43,-0.345
2.432,-0.385
2.434,-0.46
2.436,-0.45
2.438,-0.415
2.44,-0.315
2.442,-0.29
2.444,-0.205
2.446,-0.205
2.448,-0.235
2.45,-0.34
2.452,-0.36
2.454,-0.445
2.456,-0.45
2.458,-0.41
2.46,-0.305
2.462,-0.275
2.464,-0.185
2.466,-0.175
2.468,-0.24
2.47,-0.335
2.472,-0.38
2.474,-0.46
2.476,-0.43
2.478,-0.42
2.48,-0.38
2.482,-0.31
2.484,-0.24
2.486,-0.26
2.488,-0.31
2.49,-0.395
2.492,-0.43
2.494,-0.485
2.496,-0.445
2.498,-0.385
2.5,-0.325
2.502,-0.285
2.504,-0.21
2.506,-0.255
2.508,-0.28
2.51,-0.36
2.512,-0.395
2.514,-0.495
2.516,-0.445
2.518,-0.405
2.52,-0.31
2.522,-0.285
2.524,-0.205
2.526,-0.25
2.528,-0.3
2.53,-0.36
2.532,-0.395
2.534,-0.465
2.536,-0.46
2.538,-0.4
2.54,-0.33
2.542,-0.295
2.544,-0.205
2.546,-0.265
2.548,-0.325
2.55,-0.42
2.552,-0.425
2.554,-0.51
2.556,-0.475
2.558,-0.41
2.56,-0.32
2.562,-0.285
2.564,-0.205
2.566,-0.23
2.568,-0.285
2.57,-0.375
2.572,-0.4
2.574,-0.52
2.576,-0.485
2.578,-0.405
2.58,-0.34
2.582,-0.325
2.584,-0.255
2.586,-0.27
2.588,-0.32
2.59,-0.43
2.592,-0.445
2.594,-0.53
2.596,-0.505
2.598,-0.41
2.6,-0.335
2.602,-0.32
2.604,-0.23
2.606,-0.24
2.608,-0.315
2.61,-0.385
2.612,-0.43
2.614,-0.48
2.616,-0.465
2.618,-0.415
2.62,-0.335
2.622,-0.32
2.624,-0.245
2.626,-0.255
2.628,-0.33
2.63,-0.4
2.632,-0.435
2.634,-0.51
2.636,-0.48
2.638,-0.405
2.64,-0.35
2.642,-0.285
2.644,-0.245
2.646,-0.26
2.648,-0.345
2.65,-0.42
2.652,-0.46
2.654,-0.505
2.656,-0.48
2.658,-0.425
2.66,-0.345
2.662,-0.31
2.664,-0.25
2.666,-0.28
2.668,-0.36
2.67,-0.425
2.672,-0.455
2.674,-0.515
2.676,-0.485
2.678,-0.395
2.68,-0.34
2.682,-0.285
2.684,-0.24
2.686,-0.285
2.688,-0.375
2.69,-0.425
2.692,-0.485
2.694,-0.5
2.696,-0.475
2.698,-0.385
2.7,-0.31
2.702,-0.24
2.704,-0.185
2.706,-0.25
2.708,-0.36
2.71,-0.425
2.712,-0.475
2.714,-0.48
2.716,-0.44
2.718,-0.37
2.72,-0.3
2.722,-0.255
2.724,-0.21
2.726,-0.27
2.728,-0.355
2.73,-0.37
2.732,-0.46
2.734,-0.465
2.736,-0.45
2.738,-0.36
2.74,-0.36
2.742,-0.285
2.744,-0.28
2.746,-0.285
2.748,-0.375
2.75,-0.405
2.752,-0.495
2.754,-0.51
2.756,-0.47
2.758,-0.37
2.76,-0.355
2.762,-0.28
2.764,-0.29
2.766,-0.33
2.768,-0.43
2.77,-0.485
2.772,-0.555
2.774,-0.515
2.776,-0.49
2.778,-0.39
2.78,-0.355
2.782,-0.275
2.784,-0.315
2.786,-0.36
2.788,-0.455
2.79,-0.5
2.792,-0.55
2.794,-0.515
2.796,-0.47
2.798,-0.355
2.8,-0.325
2.802,-0.23
2.804,-0.27
2.806,-0.325
2.808,-0.42
2.81,-0.43
2.812,-0.53
2.814,-0.48
2.816,-0.435
2.818,-0.355
2.82,-0.375
2.822,-0.315
2.824,-0.315
2.826,-0.335
2.828,-0.41
2.83,-0.44
2.832,-0.495
2.834,-0.49
2.836,-0.41
2.838,-0.32
2.84,-0.285
2.842,-0.185
2.844,-0.24
2.846,-0.3
2.848,-0.38
2.85,-0.4
2.852,-0.485
2.854,-0.46
2.856,-0.37
2.858,-0.315
2.86,-0.3
2.862,-0.245
2.864,-0.265
2.866,-0.315
2.868,-0.4
2.87,-0.385
2.872,-0.465
2.874,-0.47
2.876,-0.42
2.878,-0.35
2.88,-0.335
2.882,-0.24
2.884,-0.275
2.886,-0.345
2.888,-0.435
2.89,-0.48
2.892,-0.565
2.894,-0.505
2.896,-0.42
2.898,-0.35
2.9,-0.345
2.902,-0.295
2.904,-0.29
2.906,-0.355
2.908,-0.435
2.91,-0.475
2.912,-0.525
2.914,-0.51
2.916,-0.43
2.918,-0.365
2.92,-0.32
2.922,-0.275
2.924,-0.27
2.926,-0.335
2.928,-0.445
2.93,-0.51
2.932,-0.54
2.934,-0.525
2.936,-0.43
2.938,-0.375
2.94,-0.345
2.942,-0.265
2.944,-0.29
2.946,-0.38
2.948,-0.48
2.95,-0.51
2.952,-0.565
2.954,-0.52
2.956,-0.4
2.958,-0.315
2.96,-0.255
2.962,-0.165
2.964,-0.17
2.966,-0.265
2.968,-0.315
2.97,-0.37
2.972,-0.395
2.974,-0.425
2.976,-0.35
2.978,-0.32
2.98,-0.39
2.982,-0.45
2.984,-0.535
2.986,-0.605
2.988,-0.64
2.99,-0.695
2.992,-0.71
2.994,-0.65
2.996,-0.545
2.998,-0.45
3,-0.38
3.002,-0.385
3.004,-0.415
3.006,-0.46
3.008,-0.505
3.01,-0.575
3.012,-0.585
3.014,-0.535
3.016,-0.435
3.018,-0.36
3.02,-0.295
3.022,-0.295
3.024,-0.34
3.026,-0.43
3.028,-0.485
3.03,-0.575
3.032,-0.565
3.034,-0.525
3.036,-0.435
3.038,-0.405
3.04,-0.315
3.042,-0.3
3.044,-0.33
3.046,-0.425
3.048,-0.47
3.05,-0.57
3.052,-0.535
3.054,-0.5
3.056,-0.405
3.058,-0.35
3.06,-0.28
3.062,-0.29
3.064,-0.335
3.066,-0.455
3.068,-0.485
3.07,-0.57
3.072,-0.515
3.074,-0.48
3.076,-0.385
3.078,-0.38
3.08,-0.265
3.082,-0.305
3.084,-0.375
3.086,-0.455
3.088,-0.435
3.09,-0.55
3.092,-0.495
3.094,-0.475
3.096,-0.39
3.098,-0.37
3.1,-0.25
3.102,-0.285
3.104,-0.335
3.106,-0.43
3.108,-0.465
3.11,-0.55
3.112,-0.505
3.114,-0.46
3.116,-0.385
3.118,-0.35
3.12,-0.295
3.122,-0.305
3.124,-0.37
3.126,-0.45
3.128,-0.465
3.13,-0.535
3.132,-0.48
3.134,-0.42
3.136,-0.36
3.138,-0.33
3.14,-0.265
3.142,-0.28
3.144,-0.325
3.146,-0.39
3.148,-0.42
3.15,-0.505
3.152,-0.49
3.154,-0.435
3.156,-0.37
3.158,-0.36
3.16,-0.26
3.162,-0.29
3.164,-0.345
3.166,-0.4
3.168,-0.43
3.17,-0.525
3.172,-0.485
3.174,-0.41
3.176,-0.335
3.178,-0.305
3.18,-0.23
3.182,-0.275
3.184,-0.345
3.186,-0.4
3.188,-0.415
3.19,-0.475
3.192,-0.46
3.194,-0.375
3.196,-0.305
3.198,-0.26
3.2,-0.155
3.202,-0.185
3.204,-0.26
3.206,-0.315
3.208,-0.345
3.21,-0.425
3.212,-0.415
3.214,-0.32
3.216,-0.23
3.218,-0.205
3.22,-0.13
3.222,-0.165
3.224,-0.23
3.226,-0.305
3.228,-0.31
3.23,-0.355
3.232,-0.33
3.234,-0.24
3.236,-0.155
3.238,-0.13
3.24,-0.095
3.242,-0.135
3.244,-0.195
3.246,-0.235
3.248,-0.285
3.25,-0.31
3.252,-0.265
3.254,-0.195
3.256,-0.14
3.258,-0.095
3.26,-0.035
3.262,-0.045
3.264,-0.16
3.266,-0.195
3.268,-0.245
3.27,-0.3
3.272,-0.245
3.274,-0.18
3.276,-0.135
3.278,-0.075
3.28,-0.05
3.282,-0.075
3.284,-0.19
3.286,-0.26
3.288,-0.34
3.29,-0.345
3.292,-0.305
3.294,-0.215
3.296,-0.15
3.298,-0.11
3.3,-0.12
3.302,-0.18
3.304,-0.275
3.306,-0.31
3.308,-0.39
3.31,-0.41
3.312,-0.39
3.314,-0.285
3.316,-0.265
3.318,-0.195
3.32,-0.23
3.322,-0.31
3.324,-0.39
3.326,-0.445
3.328,-0.525
3.33,-0.51
3.332,-0.485
3.334,-0.415
3.336,-0.375
3.338,-0.3
3.34,-0.285
3.342,-0.31
3.344,-0.415
3.346,-0.47
3.348,-0.595
3.35,-0.545
3.352,-0.505
3.354,-0.43
3.356,-0.395
3.358,-0.315
3.36,-0.33
3.362,-0.4
3.364,-0.475
3.366,-0.495
3.368,-0.595
3.37,-0.57
3.372,-0.54
3.374,-0.455
3.376,-0.45
3.378,-0.31
3.38,-0.325
3.382,-0.39
3.384,-0.475
3.386,-0.5
3.388,-0.6
3.39,-0.57
3.392,-0.525
3.394,-0.455
3.396,-0.445
3.398,-0.32
3.4,-0.345
3.402,-0.425
3.404,-0.505
3.406,-0.545
3.408,-0.625
3.41,-0.565
3.412,-0.52
3.414,-0.435
3.416,-0.43
3.418,-0.315
3.42,-0.345
3.422,-0.39
3.424,-0.495
3.426,-0.505
3.428,-0.605
3.43,-0.595
3.432,-0.53
3.434,-0.425
3.436,-0.4
3.438,-0.345
3.44,-0.38
3.442,-0.43
3.444,-0.52
3.446,-0.505
3.448,-0.595
3.45,-0.575
3.452,-0.505
3.454,-0.41
3.456,-0.385
3.458,-0.3
3.46,-0.335
3.462,-0.42
3.464,-0.5
3.466,-0.54
3.468,-0.615
3.47,-0.58
3.472,-0.525
3.474,-0.46
3.476,-0.42
3.478,-0.335
3.48,-0.36
3.482,-0.43
3.484,-0.485
3.486,-0.56
3.488,-0.615
3.49,-0.6
3.492,-0.51
3.494,-0.415
3.496,-0.36
3.498,-0.325
3.5,-0.365
3.502,-0.435
3.504,-0.525
3.506,-0.57
3.508,-0.59
3.51,-0.55
3.512,-0.485
3.514,-0.405
3.516,-0.365
3.518,-0.335
3.52,-0.36
3.522,-0.435
3.524,-0.485
3.526,-0.535
3.528,-0.585
3.53,-0.55
3.532,-0.485
3.534,-0.45
3.536,-0.39
3.538,-0.365
3.54,-0.395
3.542,-0.48
3.544,-0.545
3.546,-0.585
3.548,-0.575
3.55,-0.53
3.552,-0.48
3.554,-0.44
3.556,-0.395
3.558,-0.385
3.56,-0.42
3.562,-0.5
3.564,-0.515
3.566,-0.575
3.568,-0.62
3.57,-0.57
3.572,-0.465
3.574,-0.41
3.576,-0.365
3.578,-0.355
3.58,-0.405
3.582,-0.49
3.584,-0.525
3.586,-0.605
3.588,-0.6
3.59,-0.57
3.592,-0.475
3.594,-0.41
3.596,-0.34
3.598,-0.34
3.6,-0.4
3.602,-0.505
3.604,-0.55
3.606,-0.625
3.608,-0.615
3.61,-0.57
3.612,-0.49
3.614,-0.445
3.616,-0.37
3.618,-0.38
3.62,-0.405
3.622,-0.495
3.624,-0.53
3.626,-0.615
3.628,-0.59
3.63,-0.56
3.632,-0.46
3.634,-0.425
3.636,-0.35
3.638,-0.385
3.64,-0.465
3.642,-0.53
3.644,-0.555
3.646,-0.625
3.648,-0.59
3.65,-0.565
3.652,-0.45
3.654,-0.41
3.656,-0.34
3.658,-0.385
3.66,-0.425
3.662,-0.525
3.664,-0.545
3.666,-0.64
3.668,-0.595
3.67,-0.57
3.672,-0.51
3.674,-0.455
3.676,-0.355
3.678,-0.4
3.68,-0.42
3.682,-0.495
3.684,-0.515
3.686,-0.61
3.688,-0.61
3.69,-0.565
3.692,-0.465
3.694,-0.455
3.696,-0.375
3.698,-0.39
3.7,-0.465
3.702,-0.535
3.704,-0.55
3.706,-0.645
3.708,-0.595
3.71,-0.53
3.712,-0.44
3.714,-0.44
3.716,-0.385
3.718,-0.41
3.72,-0.445
3.722,-0.525
3.724,-0.55
3.726,-0.63
3.728,-0.585
3.73,-0.54
3.732,-0.48
3.734,-0.44
3.736,-0.365
3.738,-0.375
3.74,-0.46
3.742,-0.525
3.744,-0.55
3.746,-0.61
3.748,-0.6
3.75,-0.53
3.752,-0.455
3.754,-0.435
3.756,-0.39
3.758,-0.415
3.76,-0.495
3.762,-0.57
3.764,-0.625
3.766,-0.625
3.768,-0.59
3.77,-0.53
3.772,-0.45
3.774,-0.415
3.776,-0.37
3.778,-0.39
3.78,-0.475
3.782,-0.575
3.784,-0.6
3.786,-0.645
3.788,-0.615
3.79,-0.53
3.792,-0.49
3.794,-0.43
3.796,-0.365
3.798,-0.41
3.8,-0.48
3.802,-0.545
3.804,-0.585
3.806,-0.64
3.808,-0.61
3.81,-0.53
3.812,-0.46
3.814,-0.42
3.816,-0.39
3.818,-0.425
3.82,-0.505
3.822,-0.55
3.824,-0.59
3.826,-0.625
3.828,-0.615
3.83,-0.51
3.832,-0.465
3.834,-0.405
3.836,-0.39
3.838,-0.42
3.84,-0.5
3.842,-0.56
3.844,-0.625
3.846,-0.61
3.848,-0.605
3.85,-0.49
3.852,-0.44
3.854,-0.375
3.856,-0.35
3.858,-0.405
3.86,-0.495
3.862,-0.525
3.864,-0.605
3.866,-0.59
3.868,-0.545
3.87,-0.44
3.872,-0.38
3.874,-0.315
3.876,-0.32
3.878,-0.36
3.88,-0.475
3.882,-0.525
3.884,-0.59
3.886,-0.585
3.888,-0.51
3.89,-0.435
3.892,-0.415
3.894,-0.365
3.896,-0.395
3.898,-0.465
3.9,-0.605
3.902,-0.62
3.904,-0.67
3.906,-0.615
3.908,-0.59
3.91,-0.515
3.912,-0.475
3.914,-0.4
3.916,-0.425
3.918,-0.495
3.92,-0.55
3.922,-0.59
3.924,-0.66
3.926,-0.61
3.928,-0.59
3.93,-0.495
3.932,-0.49
3.934,-0.42
3.936,-0.44
3.938,-0.465
3.94,-0.54
3.942,-0.58
3.944,-0.685
3.946,-0.625
3.948,-0.59
3.95,-0.515
3.952,-0.495
3.954,-0.385
3.956,-0.42
3.958,-0.47
3.96,-0.55
3.962,-0.565
3.964,-0.67
3.966,-0.64
3.968,-0.575
3.97,-0.5
3.972,-0.47
3.974,-0.375
3.976,-0.39
3.978,-0.4
3.98,-0.445
3.982,-0.465
3.984,-0.555
3.986,-0.545
3.988,-0.49
3.99,-0.39
3.992,-0.335
3.994,-0.26
3.996,-0.335
3.998,-0.43
4,-0.63
4.002,-0.77
4.004,-0.895
4.006,-0.865
4.008,-0.8
4.01,-0.675
4.012,-0.645
4.014,-0.56
4.016,-0.6
4.018,-0.625
4.02,-0.66
4.022,-0.665
4.024,-0.735
4.026,-0.695
4.028,-0.6
4.03,-0.525
4.032,-0.505
4.034,-0.435
4.036,-0.475
4.038,-0.56
4.04,-0.62
4.042,-0.63
4.044,-0.675
4.046,-0.64
4.048,-0.555
4.05,-0.485
4.052,-0.44
4.054,-0.375
4.056,-0.41
4.058,-0.54
4.06,-0.63
4.062,-0.625
4.064,-0.66
4.066,-0.63
4.068,-0.53
4.07,-0.49
4.072,-0.445
4.074,-0.4
4.076,-0.43
4.078,-0.495
4.08,-0.565
4.082,-0.61
4.084,-0.645
4.086,-0.605
4.088,-0.515
4.09,-0.47
4.092,-0.445
4.094,-0.42
4.096,-0.435
4.098,-0.53
4.1,-0.55
4.102,-0.62
4.104,-0.675
4.106,-0.64
4.108,-0.515
4.11,-0.47
4.112,-0.41
4.114,-0.375
4.116,-0.42
4.118,-0.525
4.12,-0.61
4.122,-0.68
4.124,-0.68
4.126,-0.66
4.128,-0.535
4.13,-0.475
4.132,-0.42
4.134,-0.385
4.136,-0.43
4.138,-0.495
4.14,-0.54
4.142,-0.645
4.144,-0.645
4.146,-0.615
4.148,-0.51
4.15,-0.475
4.152,-0.375
4.154,-0.375
4.156,-0.405
4.158,-0.515
4.16,-0.535
4.162,-0.595
4.164,-0.565
4.166,-0.55
4.168,-0.52
4.17,-0.475
4.172,-0.39
4.174,-0.41
4.176,-0.46
4.178,-0.515
4.18,-0.545
4.182,-0.605
4.184,-0.565
4.186,-0.525
4.188,-0.45
4.19,-0.43
4.192,-0.355
4.194,-0.37
4.196,-0.41
4.198,-0.505
4.2,-0.525
4.202,-0.585
4.204,-0.525
4.206,-0.505
4.208,-0.445
4.21,-0.415
4.212,-0.335
4.214,-0.36
4.216,-0.38
4.218,-0.47
4.22,-0.485
4.222,-0.56
4.224,-0.525
4.226,-0.465
4.228,-0.37
4.23,-0.35
4.232,-0.26
4.234,-0.28
4.236,-0.34
4.238,-0.405
4.24,-0.41
4.242,-0.495
4.244,-0.475
4.246,-0.425
4.248,-0.33
4.25,-0.295
4.252,-0.185
4.254,-0.21
4.256,-0.255
4.258,-0.335
4.26,-0.365
4.262,-0.455
4.264,-0.425
4.266,-0.37
4.268,-0.305
4.27,-0.26
4.272,-0.135
4.274,-0.15
4.276,-0.23
4.278,-0.31
4.28,-0.33
4.282,-0.45
4.284,-0.42
4.286,-0.32
4.288,-0.25
4.29,-0.235
4.292,-0.17
4.294,-0.18
4.296,-0.25
4.298,-0.345
4.3,-0.355
4.302,-0.39
4.304,-0.375
4.306,-0.315
4.308,-0.26
4.31,-0.235
4.312,-0.18
4.314,-0.245
4.316,-0.34
4.318,-0.405
4.32,-0.455
4.322,-0.49
4.324,-0.475
4.326,-0.41
4.328,-0.35
4.33,-0.34
4.332,-0.3
4.334,-0.345
4.336,-0.395
4.338,-0.475
4.34,-0.545
4.342,-0.595
4.344,-0.555
4.346,-0.51
4.348,-0.425
4.35,-0.395
4.352,-0.35
4.354,-0.405
4.356,-0.48
4.358,-0.54
4.36,-0.59
4.362,-0.64
4.364,-0.615
4.366,-0.555
4.368,-0.535
4.37,-0.48
4.372,-0.43
4.374,-0.46
4.376,-0.56
4.378,-0.61
4.38,-0.65
4.382,-0.665
4.384,-0.64
4.386,-0.58
4.388,-0.525
4.39,-0.465
4.392,-0.415
4.394,-0.44
4.396,-0.555
4.398,-0.6
4.4,-0.65
4.402,-0.67
4.404,-0.66
4.406,-0.565
4.408,-0.535
4.41,-0.455
4.412,-0.44
4.414,-0.5
4.416,-0.605
4.418,-0.645
4.42,-0.685
4.422,-0.67
4.424,-0.655
4.426,-0.545
4.428,-0.495
4.43,-0.435
4.432,-0.455
4.434,-0.47
4.436,-0.575
4.438,-0.615
4.44,-0.635
4.442,-0.64
4.444,-0.61
4.446,-0.555
4.448,-0.505
4.45,-0.43
4.452,-0.435
4.454,-0.485
4.456,-0.555
4.458,-0.58
4.46,-0.69
4.462,-0.665
4.464,-0.595
4.466,-0.53
4.468,-0.515
4.47,-0.425
4.472,-0.455
4.474,-0.515
4.476,-0.605
4.478,-0.63
4.48,-0.695
4.482,-0.65
4.484,-0.605
4.486,-0.535
4.488,-0.51
4.49,-0.405
4.492,-0.44
4.494,-0.5
4.496,-0.575
4.498,-0.59
4.5,-0.69
4.502,-0.665
4.504,-0.585
4.506,-0.51
4.508,-0.495
4.51,-0.415
4.512,-0.47
4.514,-0.49
4.516,-0.59
4.518,-0.615
4.52,-0.7
4.522,-0.665
4.524,-0.6
4.526,-0.525
4.528,-0.5
4.53,-0.435
4.532,-0.45
4.534,-0.53
4.536,-0.615
4.538,-0.63
4.54,-0.705
4.542,-0.68
4.544,-0.615
4.546,-0.555
4.548,-0.525
4.55,-0.425
4.552,-0.42
4.554,-0.495
4.556,-0.585
4.558,-0.605
4.56,-0.69
4.562,-0.675
4.564,-0.64
4.566,-0.56
4.568,-0.525
4.57,-0.46
4.572,-0.47
4.574,-0.55
4.576,-0.63
4.578,-0.65
4.58,-0.68
4.582,-0.66
4.584,-0.57
4.586,-0.51
4.588,-0.51
4.59,-0.46
4.592,-0.48
4.594,-0.565
4.596,-0.645
4.598,-0.66
4.6,-0.735
4.602,-0.685
4.604,-0.61
4.606,-0.545
4.608,-0.51
4.61,-0.46
4.612,-0.47
4.614,-0.56
4.616,-0.62
4.618,-0.685
4.62,-0.715
4.622,-0.695
4.624,-0.62
4.626,-0.54
4.628,-0.515
4.63,-0.47
4.632,-0.48
4.634,-0.55
4.636,-0.625
4.638,-0.675
4.64,-0.725
4.642,-0.695
4.644,-0.61
4.646,-0.525
4.648,-0.515
4.65,-0.47
4.652,-0.49
4.654,-0.58
4.656,-0.615
4.658,-0.68
4.66,-0.7
4.662,-0.69
4.664,-0.595
4.666,-0.55
4.668,-0.475
4.67,-0.45
4.672,-0.48
4.674,-0.575
4.676,-0.625
4.678,-0.725
4.68,-0.74
4.682,-0.685
4.684,-0.595
4.686,-0.54
4.688,-0.455
4.69,-0.46
4.692,-0.5
4.694,-0.605
4.696,-0.64
4.698,-0.71
4.7,-0.695
4.702,-0.64
4.704,-0.54
4.706,-0.51
4.708,-0.48
4.71,-0.5
4.712,-0.555
4.714,-0.63
4.716,-0.675
4.718,-0.74
4.72,-0.71
4.722,-0.66
4.724,-0.56
4.726,-0.525
4.728,-0.445
4.73,-0.465
4.732,-0.51
4.734,-0.615
4.736,-0.645
4.738,-0.745
4.74,-0.725
4.742,-0.695
4.744,-0.58
4.746,-0.565
4.748,-0.485
4.75,-0.46
4.752,-0.51
4.754,-0.575
4.756,-0.62
4.758,-0.73
4.76,-0.7
4.762,-0.675
4.764,-0.57
4.766,-0.55
4.768,-0.45
4.77,-0.49
4.772,-0.545
4.774,-0.615
4.776,-0.615
4.778,-0.725
4.78,-0.69
4.782,-0.65
4.784,-0.565
4.786,-0.565
4.788,-0.495
4.79,-0.505
4.792,-0.55
4.794,-0.635
4.796,-0.655
4.798,-0.74
4.8,-0.695
4.802,-0.65
4.804,-0.55
4.806,-0.545
4.808,-0.47
4.81,-0.49
4.812,-0.545
4.814,-0.62
4.816,-0.615
4.818,-0.725
4.82,-0.705
4.822,-0.675
4.824,-0.57
4.826,-0.515
4.828,-0.435
4.83,-0.485
4.832,-0.555
4.834,-0.62
4.836,-0.67
4.838,-0.755
4.84,-0.69
4.842,-0.64
4.844,-0.565
4.846,-0.55
4.848,-0.47
4.85,-0.49
4.852,-0.535
4.854,-0.6
4.856,-0.625
4.858,-0.715
4.86,-0.7
4.862,-0.62
4.864,-0.55
4.866,-0.545
4.868,-0.475
4.87,-0.48
4.872,-0.545
4.874,-0.64
4.876,-0.68
4.878,-0.755
4.88,-0.735
4.882,-0.63
4.884,-0.56
4.886,-0.515
4.888,-0.465
4.89,-0.495
4.892,-0.565
4.894,-0.6
4.896,-0.65
4.898,-0.695
4.9,-0.71
4.902,-0.62
4.904,-0.575
4.906,-0.52
4.908,-0.455
4.91,-0.47
4.912,-0.545
4.914,-0.62
4.916,-0.665
4.918,-0.695
4.92,-0.685
4.922,-0.605
4.924,-0.53
4.926,-0.485
4.928,-0.435
4.93,-0.47
4.932,-0.505
4.934,-0.595
4.936,-0.65
4.938,-0.67
4.94,-0.665
4.942,-0.565
4.944,-0.51
4.946,-0.465
4.948,-0.455
4.95,-0.485
4.952,-0.525
4.954,-0.58
4.956,-0.675
4.958,-0.68
4.96,-0.66
4.962,-0.57
4.964,-0.53
4.966,-0.47
4.968,-0.45
4.97,-0.505
4.972,-0.59
4.974,-0.625
4.976,-0.715
4.978,-0.705
4.98,-0.655
4.982,-0.585
4.984,-0.545
4.986,-0.48
4.988,-0.49
4.99,-0.52
4.992,-0.6
4.994,-0.64
4.996,-0.725
4.998,-0.72
5,-0.66
5.002,-0.575
5.004,-0.535
5.006,-0.44
5.008,-0.475
5.01,-0.525
5.012,-0.605
5.014,-0.63
5.016,-0.71
5.018,-0.7
5.02,-0.7
5.022,-0.585
5.024,-0.545
5.026,-0.445
5.028,-0.465
5.03,-0.51
5.032,-0.62
5.034,-0.67
5.036,-0.77
5.038,-0.7
5.04,-0.645
5.042,-0.53
5.044,-0.49
5.046,-0.38
5.048,-0.395
5.05,-0.39
5.052,-0.475
5.054,-0.545
5.056,-0.625
5.058,-0.555
5.06,-0.53
5.062,-0.44
5.064,-0.415
5.066,-0.4
5.068,-0.555
5.07,-0.675
5.072,-0.775
5.074,-0.795
5.076,-0.88
5.078,-0.86
5.08,-0.8
5.082,-0.665
5.084,-0.62
5.086,-0.545
5.088,-0.555
5.09,-0.58
5.092,-0.655
5.094,-0.66
5.096,-0.73
5.098,-0.725
5.1,-0.64
5.102,-0.545
5.104,-0.525
5.106,-0.44
5.108,-0.485
5.11,-0.545
5.112,-0.63
5.114,-0.665
5.116,-0.735
5.118,-0.71
5.12,-0.63
5.122,-0.535
5.124,-0.51
5.126,-0.435
5.128,-0.47
5.13,-0.535
5.132,-0.595
5.134,-0.635
5.136,-0.71
5.138,-0.665
5.14,-0.59
5.142,-0.54
5.144,-0.505
5.146,-0.45
5.148,-0.45
5.15,-0.545
5.152,-0.61
5.154,-0.64
5.156,-0.67
5.158,-0.63
5.16,-0.58
5.162,-0.52
5.164,-0.46
5.166,-0.375
5.168,-0.42
5.17,-0.5
5.172,-0.59
5.174,-0.635
5.176,-0.7
5.178,-0.67
5.18,-0.585
5.182,-0.55
5.184,-0.485
5.186,-0.395
5.188,-0.425
5.19,-0.51
5.192,-0.595
5.194,-0.665
5.196,-0.71
5.198,-0.69
5.2,-0.595
5.202,-0.5
5.204,-0.46
5.206,-0.4
5.208,-0.435
5.21,-0.52
5.212,-0.6
5.214,-0.635
5.216,-0.66
5.218,-0.655
5.22,-0.565
5.222,-0.495
5.224,-0.465
5.226,-0.43
5.228,-0.475
5.23,-0.53
5.232,-0.565
5.234,-0.61
5.236,-0.635
5.238,-0.615
5.24,-0.525
5.242,-0.49
5.244,-0.42
5.246,-0.405
5.248,-0.435
5.25,-0.515
5.252,-0.545
5.254,-0.615
5.256,-0.61
5.258,-0.585
5.26,-0.535
5.262,-0.5
5.264,-0.415
5.266,-0.4
5.268,-0.405
5.27,-0.48
5.272,-0.49
5.274,-0.605
5.276,-0.59
5.278,-0.555
5.28,-0.44
5.282,-0.385
5.284,-0.31
5.286,-0.34
5.288,-0.415
5.29,-0.475
5.292,-0.485
5.294,-0.57
5.296,-0.53
5.298,-0.525
5.3,-0.425
5.302,-0.385
5.304,-0.31
5.306,-0.305
5.308,-0.335
5.31,-0.42
5.312,-0.435
5.314,-0.52
5.316,-0.495
5.318,-0.46
5.32,-0.35
5.322,-0.29
5.324,-0.2
5.326,-0.245
5.328,-0.265
5.33,-0.38
5.332,-0.405
5.334,-0.475
5.336,-0.445
5.338,-0.415
5.34,-0.31
5.342,-0.285
5.344,-0.21
5.346,-0.225
5.348,-0.285
5.35,-0.365
5.352,-0.365
5.354,-0.43
5.356,-0.39
5.358,-0.345
5.36,-0.27
5.362,-0.245
5.364,-0.17
5.366,-0.2
5.368,-0.28
5.37,-0.365
5.372,-0.355
5.374,-0.455
5.376,-0.435
5.378,-0.4
5.38,-0.345
5.382,-0.33
5.384,-0.235
5.386,-0.275
5.388,-0.33
5.39,-0.435
5.392,-0.475
5.394,-0.555
5.396,-0.535
5.398,-0.475
5.4,-0.415
5.402,-0.415
5.404,-0.325
5.406,-0.36
5.408,-0.425
5.41,-0.51
5.412,-0.53
5.414,-0.635
5.416,-0.635
5.418,-0.57
5.42,-0.505
5.422,-0.475
5.424,-0.42
5.426,-0.44
5.428,-0.535
5.43,-0.615
5.432,-0.635
5.434,-0.68
5.436,-0.685
5.438,-0.625
5.44,-0.545
5.442,-0.5
5.444,-0.45
5.446,-0.47
5.448,-0.55
5.45,-0.615
5.452,-0.65
5.454,-0.695
5.456,-0.68
5.458,-0.635
5.46,-0.555
5.462,-0.49
5.464,-0.41
5.466,-0.44
5.468,-0.555
5.47,-0.645
5.472,-0.69
5.474,-0.735
5.476,-0.7
5.478,-0.605
5.48,-0.525
5.482,-0.515
5.484,-0.48
5.486,-0.525
5.488,-0.605
5.49,-0.645
5.492,-0.7
5.494,-0.735
5.496,-0.695
5.498,-0.6
5.5,-0.505
5.502,-0.465
5.504,-0.44
5.506,-0.465
5.508,-0.565
5.51,-0.63
5.512,-0.69
5.514,-0.735
5.516,-0.695
5.518,-0.595
5.52,-0.55
5.522,-0.49
5.524,-0.46
5.526,-0.49
5.528,-0.57
5.53,-0.625
5.532,-0.68
5.534,-0.695
5.536,-0.685
5.538,-0.605
5.54,-0.555
5.542,-0.46
5.544,-0.445
5.546,-0.485
5.548,-0.59
5.55,-0.625
5.552,-0.705
5.554,-0.695
5.556,-0.665
5.558,-0.59
5.56,-0.52
5.562,-0.45
5.564,-0.475
5.566,-0.495
5.568,-0.575
5.57,-0.62
5.572,-0.7
5.574,-0.685
5.576,-0.64
5.578,-0.565
5.58,-0.525
5.582,-0.445
5.584,-0.445
5.586,-0.49
5.588,-0.57
5.59,-0.6
5.592,-0.735
5.594,-0.71
5.596,-0.67
5.598,-0.58
5.6,-0.58
5.602,-0.46
5.604,-0.5
5.606,-0.505
5.608,-0.59
5.61,-0.61
5.612,-0.71
5.614,-0.695
5.616,-0.675
5.618,-0.59
5.62,-0.56
5.622,-0.44
5.624,-0.45
5.626,-0.5
5.628,-0.585
5.63,-0.62
5.632,-0.7
5.634,-0.71
5.636,-0.675
5.638,-0.605
5.64,-0.55
5.642,-0.44
5.644,-0.475
5.646,-0.55
5.648,-0.62
5.65,-0.65
5.652,-0.74
5.654,-0.72
5.656,-0.645
5.658,-0.565
5.66,-0.545
5.662,-0.43
5.664,-0.495
5.666,-0.565
5.668,-0.635
5.67,-0.64
5.672,-0.72
5.674,-0.695
5.676,-0.66
5.678,-0.575
5.68,-0.535
5.682,-0.455
5.684,-0.505
5.686,-0.56
5.688,-0.645
5.69,-0.645
5.692,-0.715
5.694,-0.705
5.696,-0.645
5.698,-0.545
5.7,-0.49
5.702,-0.435
5.704,-0.465
5.706,-0.535
5.708,-0.655
5.71,-0.68
5.712,-0.725
5.714,-0.71
5.716,-0.635
5.718,-0.55
5.72,-0.49
5.722,-0.465
5.724,-0.51
5.726,-0.58
5.728,-0.655
5.73,-0.715
5.732,-0.74
5.734,-0.705
5.736,-0.615
5.738,-0.575
5.74,-0.515
5.742,-0.455
5.744,-0.48
5.746,-0.555
5.748,-0.61
5.75,-0.65
5.752,-0.715
5.754,-0.69
5.756,-0.59
5.758,-0.55
5.76,-0.49
5.762,-0.485
5.764,-0.525
5.766,-0.585
5.768,-0.66
5.77,-0.7
5.772,-0.725
5.774,-0.67
5.776,-0.59
5.778,-0.55
5.78,-0.505
5.782,-0.435
5.784,-0.48
5.786,-0.58
5.788,-0.63
5.79,-0.685
5.792,-0.71
5.794,-0.67
5.796,-0.575
5.798,-0.555
5.8,-0.515
5.802,-0.48
5.804,-0.495
5.806,-0.595
5.808,-0.635
5.81,-0.7
5.812,-0.735
5.814,-0.69
5.816,-0.6
5.818,-0.545
5.82,-0.485
5.822,-0.465
5.824,-0.505
5.826,-0.605
5.828,-0.65
5.83,-0.71
5.832,-0.69
5.834,-0.665
5.836,-0.56
5.838,-0.53
5.84,-0.455
5.842,-0.445
5.844,-0.51
5.846,-0.625
5.848,-0.675
5.85,-0.745
5.852,-0.735
5.854,-0.67
5.856,-0.575
5.858,-0.53
5.86,-0.45
5.862,-0.51
5.864,-0.51
5.866,-0.595
5.868,-0.66
5.87,-0.725
5.872,-0.69
5.874,-0.635
5.876,-0.555
5.878,-0.555
5.88,-0.465
5.882,-0.485
5.884,-0.495
5.886,-0.595
5.888,-0.64
5.89,-0.715
5.892,-0.67
5.894,-0.665
5.896,-0.56
5.898,-0.525
5.9,-0.45
5.902,-0.47
5.904,-0.52
5.906,-0.61
5.908,-0.62
5.91,-0.735
5.912,-0.695
5.914,-0.64
5.916,-0.53
5.918,-0.485
5.92,-0.44
5.922,-0.47
5.924,-0.53
5.926,-0.635
5.928,-0.655
5.93,-0.73
5.932,-0.69
5.934,-0.645
5.936,-0.56
5.938,-0.53
5.94,-0.46
5.942,-0.495
5.944,-0.545
5.946,-0.635
5.948,-0.635
5.95,-0.715
5.952,-0.67
5.954,-0.61
5.956,-0.545
5.958,-0.55
5.96,-0.44
5.962,-0.455
5.964,-0.5
5.966,-0.6
5.968,-0.635
5.97,-0.69
5.972,-0.68
5.974,-0.615
5.976,-0.53
5.978,-0.515
5.98,-0.435
5.982,-0.465
5.984,-0.535
5.986,-0.6
5.988,-0.64
5.99,-0.72
5.992,-0.69
5.994,-0.64
5.996,-0.575
5.998,-0.53
6,-0.435
6.002,-0.435
6.004,-0.495
6.006,-0.57
6.008,-0.605
6.01,-0.69
6.012,-0.685
6.014,-0.62
6.016,-0.535
6.018,-0.475
6.02,-0.415
6.022,-0.435
6.024,-0.48
6.026,-0.55
6.028,-0.605
6.03,-0.655
6.032,-0.645
6.034,-0.56
6.036,-0.475
6.038,-0.44
6.04,-0.42
6.042,-0.46
6.044,-0.54
6.046,-0.595
6.048,-0.635
6.05,-0.675
6.052,-0.65
6.054,-0.57
6.056,-0.5
6.058,-0.425
6.06,-0.435
6.062,-0.485
6.064,-0.59
6.066,-0.61
6.068,-0.695
6.07,-0.72
6.072,-0.71
6.074,-0.62
6.076,-0.54
6.078,-0.475
6.08,-0.44
6.082,-0.485
6.084,-0.56
6.086,-0.62
6.088,-0.695
6.09,-0.655
6.092,-0.62
6.094,-0.55
6.096,-0.54
6.098,-0.47
6.1,-0.485
6.102,-0.535
6.104,-0.625
6.106,-0.655
6.108,-0.73
6.11,-0.705
6.112,-0.69
6.114,-0.58
6.116,-0.54
6.118,-0.485
6.12,-0.455
6.122,-0.485
6.124,-0.59
6.126,-0.645
6.128,-0.745
6.13,-0.715
6.132,-0.635
6.134,-0.55
6.136,-0.48
6.138,-0.335
6.14,-0.35
6.142,-0.365
6.144,-0.46
6.146,-0.515
6.148,-0.59
6.15,-0.57
6.152,-0.535
6.154,-0.45
6.156,-0.455
6.158,-0.465
6.16,-0.615
6.162,-0.72
6.164,-0.775
6.166,-0.76
6.168,-0.825
6.17,-0.795
6.172,-0.785
6.174,-0.675
6.176,-0.595
6.178,-0.51
6.18,-0.565
6.182,-0.58
6.184,-0.625
6.186,-0.675
6.188,-0.745
6.19,-0.735
6.192,-0.645
6.194,-0.58
6.196,-0.545
6.198,-0.455
6.2,-0.49
6.202,-0.535
6.204,-0.63
6.206,-0.665
6.208,-0.735
6.21,-0.7
6.212,-0.655
6.214,-0.56
6.216,-0.535
6.218,-0.43
6.22,-0.455
6.222,-0.49
6.224,-0.6
6.226,-0.635
6.228,-0.71
6.23,-0.655
6.232,-0.58
6.234,-0.48
6.236,-0.475
6.238,-0.415
6.24,-0.45
6.242,-0.53
6.244,-0.605
6.246,-0.625
6.248,-0.7
6.25,-0.695
6.252,-0.62
6.254,-0.515
6.256,-0.455
6.258,-0.395
6.26,-0.42
6.262,-0.53
6.264,-0.615
6.266,-0.635
6.268,-0.705
6.27,-0.68
6.272,-0.61
6.274,-0.565
6.276,-0.505
6.278,-0.48
6.28,-0.475
6.282,-0.525
6.284,-0.575
6.286,-0.625
6.288,-0.68
6.29,-0.625
6.292,-0.565
6.294,-0.505
6.296,-0.44
6.298,-0.38
6.3,-0.415
6.302,-0.495
6.304,-0.58
6.306,-0.63
6.308,-0.675
6.31,-0.64
6.312,-0.55
6.314,-0.515
6.316,-0.475
6.318,-0.415
6.32,-0.455
6.322,-0.51
6.324,-0.57
6.326,-0.625
6.328,-0.665
6.33,-0.635
6.332,-0.555
6.334,-0.495
6.336,-0.425
6.338,-0.39
6.34,-0.41
6.342,-0.505
6.344,-0.53
6.346,-0.6
6.348,-0.615
6.35,-0.585
6.352,-0.53
6.354,-0.48
6.356,-0.425
6.358,-0.395
6.36,-0.42
6.362,-0.49
6.364,-0.5
6.366,-0.555
6.368,-0.585
6.37,-0.56
6.372,-0.47
6.374,-0.435
6.376,-0.355
6.378,-0.305
6.38,-0.32
6.382,-0.425
6.384,-0.475
6.386,-0.54
6.388,-0.52
6.39,-0.48
6.392,-0.39
6.394,-0.37
6.396,-0.26
6.398,-0.265
6.4,-0.3
6.402,-0.355
6.404,-0.395
6.406,-0.505
6.408,-0.49
6.41,-0.45
6.412,-0.365
6.414,-0.315
6.416,-0.215
6.418,-0.21
6.42,-0.28
6.422,-0.36
6.424,-0.405
6.426,-0.49
6.428,-0.45
6.43,-0.385
6.432,-0.305
6.434,-0.235
6.436,-0.155
6.438,-0.215
6.44,-0.245
6.442,-0.335
6.444,-0.33
6.446,-0.425
6.448,-0.385
6.45,-0.38
6.452,-0.275
6.454,-0.235
6.456,-0.14
6.458,-0.175
6.46,-0.235
6.462,-0.325
6.464,-0.37
6.466,-0.495
6.468,-0.455
6.47,-0.415
6.472,-0.33
6.474,-0.315
6.476,-0.215
6.478,-0.26
6.48,-0.33
6.482,-0.435
6.484,-0.435
6.486,-0.53
6.488,-0.51
6.49,-0.455
6.492,-0.385
6.494,-0.39
6.496,-0.325
6.498,-0.34
6.5,-0.405
6.502,-0.52
6.504,-0.53
6.506,-0.615
6.508,-0.605
6.51,-0.55
6.512,-0.495
6.514,-0.455
6.516,-0.375
6.518,-0.42
6.52,-0.445
6.522,-0.535
6.524,-0.585
6.526,-0.68
6.528,-0.665
6.53,-0.61
6.532,-0.495
6.534,-0.485
6.536,-0.42
6.538,-0.44
6.54,-0.525
6.542,-0.6
6.544,-0.635
6.546,-0.695
6.548,-0.67
6.55,-0.62
6.552,-0.55
6.554,-0.5
6.556,-0.46
6.558,-0.47
6.56,-0.52
6.562,-0.62
6.564,-0.665
6.566,-0.715
6.568,-0.67
6.57,-0.59
6.572,-0.5
6.574,-0.475
6.576,-0.42
6.578,-0.465
6.58,-0.555
6.582,-0.6
6.584,-0.64
6.586,-0.705
6.588,-0.665
6.59,-0.575
6.592,-0.5
6.594,-0.47
6.596,-0.41
6.598,-0.45
6.6,-0.53
6.602,-0.56
6.604,-0.61
6.606,-0.685
6.608,-0.635
6.61,-0.56
6.612,-0.495
6.614,-0.43
6.616,-0.415
6.618,-0.48
6.62,-0.55
6.622,-0.59
6.624,-0.625
6.626,-0.65
6.628,-0.64
6.63,-0.57
6.632,-0.515
6.634,-0.455
6.636,-0.435
6.638,-0.46
6.64,-0.545
6.642,-0.59
6.644,-0.635
6.646,-0.625
6.648,-0.605
6.65,-0.545
6.652,-0.54
6.654,-0.46
6.656,-0.445
6.658,-0.465
6.66,-0.545
6.662,-0.61
6.664,-0.685
6.666,-0.65
6.668,-0.635
6.67,-0.56
6.672,-0.5
6.674,-0.42
6.676,-0.425
6.678,-0.445
6.68,-0.535
6.682,-0.55
6.684,-0.66
6.686,-0.64
6.688,-0.61
6.69,-0.53
6.692,-0.5
6.694,-0.415
6.696,-0.455
6.698,-0.5
6.7,-0.59
6.702,-0.61
6.704,-0.69
6.706,-0.645
6.708,-0.61
6.71,-0.52
6.712,-0.5
6.714,-0.4
6.716,-0.44
6.718,-0.49
6.72,-0.57
6.722,-0.625
6.724,-0.69
6.726,-0.625
6.728,-0.595
6.73,-0.525
6.732,-0.495
6.734,-0.395
6.736,-0.435
6.738,-0.49
6.74,-0.58
6.742,-0.64
6.744,-0.71
6.746,-0.66
6.748,-0.61
6.75,-0.545
6.752,-0.515
6.754,-0.425
6.756,-0.435
6.758,-0.5
6.76,-0.585
6.762,-0.61
6.764,-0.68
6.766,-0.635
6.768,-0.575
6.77,-0.51
6.772,-0.48
6.774,-0.39
6.776,-0.38
6.778,-0.45
6.78,-0.54
6.782,-0.6
6.784,-0.695
6.786,-0.65
6.788,-0.595
6.79,-0.51
6.792,-0.47
6.794,-0.395
6.796,-0.435
6.798,-0.495
6.8,-0.575
6.802,-0.605
6.804,-0.665
6.806,-0.64
6.808,-0.575
6.81,-0.49
6.812,-0.45
6.814,-0.405
6.816,-0.42
6.818,-0.495
6.82,-0.585
6.822,-0.595
6.824,-0.66
6.826,-0.635
6.828,-0.56
6.83,-0.47
6.832,-0.41
6.834,-0.35
6.836,-0.425
6.838,-0.51
6.84,-0.585
6.842,-0.605
6.844,-0.67
6.846,-0.645
6.848,-0.515
6.85,-0.465
6.852,-0.43
6.854,-0.41
6.856,-0.42
6.858,-0.485
6.86,-0.58
6.862,-0.65
6.864,-0.685
6.866,-0.655
6.868,-0.57
6.87,-0.51
6.872,-0.495
6.874,-0.45
6.876,-0.47
6.878,-0.54
6.88,-0.59
6.882,-0.63
6.884,-0.685
6.886,-0.675
6.888,-0.585
6.89,-0.55
6.892,-0.495
6.894,-0.415
6.896,-0.445
6.898,-0.54
6.9,-0.58
6.902,-0.61
6.904,-0.66
6.906,-0.645
6.908,-0.57
6.91,-0.51
6.912,-0.44
6.914,-0.39
6.916,-0.445
6.918,-0.545
6.92,-0.58
6.922,-0.655
6.924,-0.655
6.926,-0.625
6.928,-0.535
6.93,-0.505
6.932,-0.425
6.934,-0.4
6.936,-0.425
6.938,-0.55
6.94,-0.59
6.942,-0.66
6.944,-0.635
6.946,-0.61
6.948,-0.51
6.95,-0.415
6.952,-0.345
6.954,-0.405
6.956,-0.435
6.958,-0.53
6.96,-0.57
6.962,-0.665
6.964,-0.645
6.966,-0.61
6.968,-0.55
6.97,-0.495
6.972,-0.41
6.974,-0.41
6.976,-0.475
6.978,-0.555
6.98,-0.585
6.982,-0.65
6.984,-0.605
6.986,-0.605
6.988,-0.505
6.99,-0.48
6.992,-0.385
6.994,-0.415
6.996,-0.47
6.998,-0.54
7,-0.585
7.002,-0.68
7.004,-0.645
7.006,-0.585
7.008,-0.49
7.01,-0.46
7.012,-0.385
7.014,-0.435
7.016,-0.485
7.018,-0.59
7.02,-0.585
7.022,-0.685
7.024,-0.625
7.026,-0.585
7.028,-0.465
7.03,-0.465
7.032,-0.365
7.034,-0.4
7.036,-0.46
7.038,-0.545
7.04,-0.565
7.042,-0.67
7.044,-0.62
7.046,-0.56
7.048,-0.475
7.05,-0.45
7.052,-0.37
7.054,-0.39
7.056,-0.45
7.058,-0.56
7.06,-0.57
7.062,-0.67
7.064,-0.62
7.066,-0.555
7.068,-0.48
7.07,-0.445
7.072,-0.355
7.074,-0.415
7.076,-0.48
7.078,-0.565
7.08,-0.54
7.082,-0.63
7.084,-0.635
7.086,-0.57
7.088,-0.465
7.09,-0.44
7.092,-0.375
7.094,-0.42
7.096,-0.47
7.098,-0.57
7.1,-0.595
7.102,-0.675
7.104,-0.645
7.106,-0.565
7.108,-0.47
7.11,-0.41
7.112,-0.355
7.114,-0.385
7.116,-0.43
7.118,-0.485
7.12,-0.51
7.122,-0.59
7.124,-0.545
7.126,-0.465
7.128,-0.415
7.13,-0.385
7.132,-0.32
7.134,-0.34
7.136,-0.425
7.138,-0.515
7.14,-0.585
7.142,-0.63
7.144,-0.58
7.146,-0.485
7.148,-0.42
7.15,-0.39
7.152,-0.35
7.154,-0.415
7.156,-0.51
7.158,-0.535
7.16,-0.57
7.162,-0.63
7.164,-0.59
7.166,-0.525
7.168,-0.45
7.17,-0.415
7.172,-0.4
7.174,-0.43
7.176,-0.51
7.178,-0.59
7.18,-0.63
7.182,-0.635
7.184,-0.615
7.186,-0.53
7.188,-0.465
7.19,-0.46
7.192,-0.39
7.194,-0.435
7.196,-0.52
7.198,-0.595
7.2,-0.655
7.202,-0.67
7.204,-0.625
7.206,-0.495
7.208,-0.45
7.21,-0.39
7.212,-0.355
7.214,-0.42
7.216,-0.525
7.218,-0.565
7.22,-0.655
7.222,-0.66
7.224,-0.6
7.226,-0.515
7.228,-0.48
7.23,-0.4
7.232,-0.385
7.234,-0.415
7.236,-0.51
7.238,-0.515
7.24,-0.56
7.242,-0.505
7.244,-0.45
7.246,-0.4
7.248,-0.345
7.25,-0.255
7.252,-0.255
7.254,-0.33
7.256,-0.455
7.258,-0.495
7.26,-0.695
7.262,-0.775
7.264,-0.78
7.266,-0.69
7.268,-0.64
7.27,-0.56
7.272,-0.57
7.274,-0.57
7.276,-0.615
7.278,-0.62
7.28,-0.71
7.282,-0.655
7.284,-0.62
7.286,-0.525
7.288,-0.51
7.29,-0.39
7.292,-0.45
7.294,-0.47
7.296,-0.54
7.298,-0.57
7.3,-0.675
7.302,-0.605
7.304,-0.57
7.306,-0.48
7.308,-0.47
7.31,-0.345
7.312,-0.35
7.314,-0.4
7.316,-0.515
7.318,-0.55
7.32,-0.65
7.322,-0.625
7.324,-0.57
7.326,-0.48
7.328,-0.435
7.33,-0.36
7.332,-0.4
7.334,-0.43
7.336,-0.515
7.338,-0.52
7.34,-0.61
7.342,-0.59
7.344,-0.535
7.346,-0.46
7.348,-0.43
7.35,-0.34
7.352,-0.345
7.354,-0.435
7.356,-0.515
7.358,-0.55
7.36,-0.585
7.362,-0.55
7.364,-0.505
7.366,-0.445
7.368,-0.435
7.37,-0.34
7.372,-0.36
7.374,-0.425
7.376,-0.52
7.378,-0.55
7.38,-0.605
7.382,-0.58
7.384,-0.52
7.386,-0.44
7.388,-0.4
7.39,-0.335
7.392,-0.345
7.394,-0.42
7.396,-0.495
7.398,-0.545
7.4,-0.6
7.402,-0.555
7.404,-0.48
7.406,-0.395
7.408,-0.335
7.41,-0.27
7.412,-0.325
7.414,-0.415
7.416,-0.46
7.418,-0.5
7.42,-0.575
7.422,-0.545
7.424,-0.445
7.426,-0.38
7.428,-0.375
7.43,-0.36
7.432,-0.365
7.434,-0.41
7.436,-0.475
7.438,-0.525
7.44,-0.56
7.442,-0.525
7.444,-0.46
7.446,-0.41
7.448,-0.325
7.45,-0.25
7.452,-0.31
7.454,-0.365
7.456,-0.42
7.458,-0.46
7.46,-0.49
7.462,-0.465
7.464,-0.37
7.466,-0.33
7.468,-0.315
7.47,-0.255
7.472,-0.27
7.474,-0.375
7.476,-0.41
7.478,-0.45
7.48,-0.47
7.482,-0.45
7.484,-0.37
7.486,-0.32
7.488,-0.22
7.49,-0.19
7.492,-0.21
7.494,-0.27
7.496,-0.32
7.498,-0.405
7.5,-0.43
7.502,-0.405
7.504,-0.315
7.506,-0.265
7.508,-0.195
7.51,-0.16
7.512,-0.18
7.514,-0.245
7.516,-0.285
7.518,-0.35
7.52,-0.335
7.522,-0.28
7.524,-0.19
7.526,-0.155
7.528,-0.07
7.53,-0.095
7.532,-0.155
7.534,-0.235
7.536,-0.275
7.538,-0.345
7.54,-0.315
7.542,-0.275
7.544,-0.195
7.546,-0.145
7.548,-0.04
7.55,-0.065
7.552,-0.125
7.554,-0.205
7.556,-0.225
7.558,-0.32
7.56,-0.295
7.562,-0.26
7.564,-0.205
7.566,-0.185
7.568,-0.075
7.57,-0.105
7.572,-0.15
7.574,-0.24
7.576,-0.285
7.578,-0.38
7.58,-0.355
7.582,-0.315
7.584,-0.22
7.586,-0.22
7.588,-0.125
7.59,-0.18
7.592,-0.23
7.594,-0.355
7.596,-0.4
7.598,-0.485
7.6,-0.45
7.602,-0.425
7.604,-0.315
7.606,-0.31
7.608,-0.22
7.61,-0.245
7.612,-0.305
7.614,-0.385
7.616,-0.43
7.618,-0.56
7.62,-0.535
7.622,-0.495
7.624,-0.38
7.626,-0.385
7.628,-0.325
7.63,-0.335
7.632,-0.385
7.634,-0.48
7.636,-0.5
7.638,-0.59
7.64,-0.56
7.642,-0.495
7.644,-0.425
7.646,-0.385
7.648,-0.32
7.65,-0.37
7.652,-0.435
7.654,-0.495
7.656,-0.495
7.658,-0.575
7.66,-0.53
7.662,-0.455
7.664,-0.41
7.666,-0.375
7.668,-0.33
7.67,-0.375
7.672,-0.445
7.674,-0.52
7.676,-0.535
7.678,-0.605
7.68,-0.56
7.682,-0.48
7.684,-0.39
7.686,-0.345
7.688,-0.29
7.69,-0.32
7.692,-0.41
7.694,-0.475
7.696,-0.505
7.698,-0.58
7.7,-0.535
7.702,-0.455
7.704,-0.385
7.706,-0.335
7.708,-0.305
7.71,-0.355
7.712,-0.435
7.714,-0.485
7.716,-0.53
7.718,-0.57
7.72,-0.565
7.722,-0.44
7.724,-0.365
7.726,-0.32
7.728,-0.275
7.73,-0.33
7.732,-0.42
7.734,-0.49
7.736,-0.535
7.738,-0.585
7.74,-0.57
7.742,-0.47
7.744,-0.425
7.746,-0.33
7.748,-0.3
7.75,-0.315
7.752,-0.405
7.754,-0.465
7.756,-0.535
7.758,-0.565
7.76,-0.515
7.762,-0.425
7.764,-0.355
7.766,-0.34
7.768,-0.305
7.77,-0.34
7.772,-0.44
7.774,-0.5
7.776,-0.56
7.778,-0.57
7.78,-0.515
7.782,-0.445
7.784,-0.37
7.786,-0.31
7.788,-0.285
7.79,-0.325
7.792,-0.445
7.794,-0.47
7.796,-0.55
7.798,-0.555
7.8,-0.51
7.802,-0.435
7.804,-0.4
7.806,-0.34
7.808,-0.34
7.81,-0.375
7.812,-0.445
7.814,-0.485
7.816,-0.56
7.818,-0.545
7.82,-0.5
7.822,-0.41
7.824,-0.375
7.826,-0.28
7.828,-0.325
7.83,-0.345
7.832,-0.41
7.834,-0.46
7.836,-0.53
7.838,-0.55
7.84,-0.555
7.842,-0.475
7.844,-0.45
7.846,-0.32
7.848,-0.325
7.85,-0.35
7.852,-0.44
7.854,-0.49
7.856,-0.575
7.858,-0.54
7.86,-0.495
7.862,-0.4
7.864,-0.39
7.866,-0.3
7.868,-0.32
7.87,-0.34
7.872,-0.47
7.874,-0.525
7.876,-0.59
7.878,-0.56
7.88,-0.505
7.882,-0.39
7.884,-0.39
7.886,-0.305
7.888,-0.35
7.89,-0.375
7.892,-0.445
7.894,-0.49
7.896,-0.585
7.898,-0.56
7.9,-0.485
7.902,-0.395
7.904,-0.36
7.906,-0.28
7.908,-0.33
7.91,-0.385
7.912,-0.45
7.914,-0.48
7.916,-0.55
7.918,-0.5
7.92,-0.455
7.922,-0.375
7.924,-0.375
7.926,-0.3
7.928,-0.315
7.93,-0.39
7.932,-0.465
7.934,-0.505
7.936,-0.6
7.938,-0.555
7.94,-0.47
7.942,-0.39
7.944,-0.365
7.946,-0.26
7.948,-0.3
7.95,-0.37
7.952,-0.445
7.954,-0.48
7.956,-0.555
7.958,-0.52
7.96,-0.45
7.962,-0.37
7.964,-0.35
7.966,-0.29
7.968,-0.32
7.97,-0.38
7.972,-0.48
7.974,-0.53
7.976,-0.565
7.978,-0.55
7.98,-0.455
7.982,-0.385
7.984,-0.345
7.986,-0.28
7.988,-0.31
7.99,-0.4
7.992,-0.495
7.994,-0.54
7.996,-0.585
7.998,-0.53
8,-0.43
8.002,-0.35
8.004,-0.31
8.006,-0.29
8.008,-0.335
8.01,-0.42
8.012,-0.465
8.014,-0.525
8.016,-0.535
8.018,-0.505
8.02,-0.43
8.022,-0.345
8.024,-0.31
8.026,-0.265
8.028,-0.32
8.03,-0.4
8.032,-0.455
8.034,-0.5
8.036,-0.535
8.038,-0.495
8.04,-0.44
8.042,-0.395
8.044,-0.34
8.046,-0.29
8.048,-0.315
8.05,-0.42
8.052,-0.445
8.054,-0.52
8.056,-0.515
8.058,-0.47
8.06,-0.4
8.062,-0.345
8.064,-0.295
8.066,-0.29
8.068,-0.345
8.07,-0.43
8.072,-0.465
8.074,-0.52
8.076,-0.525
8.078,-0.49
8.08,-0.39
8.082,-0.355
8.084,-0.285
8.086,-0.28
8.088,-0.31
8.09,-0.395
8.092,-0.435
8.094,-0.55
8.096,-0.535
8.098,-0.475
8.1,-0.39
8.102,-0.355
8.104,-0.275
8.106,-0.32
8.108,-0.36
8.11,-0.435
8.112,-0.465
8.114,-0.565
8.116,-0.515
8.118,-0.49
8.12,-0.39
8.122,-0.35
8.124,-0.26
8.126,-0.29
8.128,-0.34
8.13,-0.415
8.132,-0.465
8.134,-0.555
8.136,-0.525
8.138,-0.47
8.14,-0.375
8.142,-0.36
8.144,-0.26
8.146,-0.305
8.148,-0.37
8.15,-0.44
8.152,-0.46
8.154,-0.555
8.156,-0.505
8.158,-0.435
8.16,-0.33
8.162,-0.33
8.164,-0.27
8.166,-0.28
8.168,-0.33
8.17,-0.42
8.172,-0.455
8.174,-0.575
8.176,-0.52
8.178,-0.46
8.18,-0.35
8.182,-0.315
8.184,-0.2
8.186,-0.23
8.188,-0.29
8.19,-0.395
8.192,-0.435
8.194,-0.515
8.196,-0.495
8.198,-0.445
8.2,-0.34
8.202,-0.3
8.204,-0.21
8.206,-0.235
8.208,-0.315
8.21,-0.39
8.212,-0.435
8.214,-0.51
8.216,-0.49
8.218,-0.43
8.22,-0.35
8.222,-0.315
8.224,-0.225
8.226,-0.245
8.228,-0.33
8.23,-0.43
8.232,-0.46
8.234,-0.52
8.236,-0.53
8.238,-0.445
8.24,-0.37
8.242,-0.34
8.244,-0.28
8.246,-0.335
8.248,-0.4
8.25,-0.445
8.252,-0.49
8.254,-0.55
8.256,-0.52
8.258,-0.435
8.26,-0.36
8.262,-0.33
8.264,-0.28
8.266,-0.31
8.268,-0.37
8.27,-0.445
8.272,-0.49
8.274,-0.535
8.276,-0.495
8.278,-0.425
8.28,-0.375
8.282,-0.33
8.284,-0.28
8.286,-0.27
8.288,-0.335
8.29,-0.415
8.292,-0.475
8.294,-0.515
8.296,-0.505
8.298,-0.405
8.3,-0.35
8.302,-0.335
8.304,-0.29
8.306,-0.33
8.308,-0.38
8.31,-0.405
8.312,-0.455
8.314,-0.44
8.316,-0.41
8.318,-0.315
8.32,-0.27
8.322,-0.2
8.324,-0.185
8.326,-0.165
8.328,-0.3
8.33,-0.405
8.332,-0.505
8.334,-0.645
8.336,-0.695
8.338,-0.635
8.34,-0.57
8.342,-0.49
8.344,-0.45
8.346,-0.48
8.348,-0.595
8.35,-0.62
8.352,-0.665
8.354,-0.635
8.356,-0.55
8.358,-0.435
8.36,-0.39
8.362,-0.305
8.364,-0.32
8.366,-0.37
8.368,-0.455
8.37,-0.45
8.372,-0.53
8.374,-0.525
8.376,-0.49
8.378,-0.4
8.38,-0.38
8.382,-0.27
8.384,-0.275
8.386,-0.34
8.388,-0.41
8.39,-0.41
8.392,-0.48
8.394,-0.465
8.396,-0.445
8.398,-0.355
8.4,-0.305
8.402,-0.215
8.404,-0.225
8.406,-0.295
8.408,-0.385
8.41,-0.405
8.412,-0.505
8.414,-0.485
8.416,-0.435
8.418,-0.325
8.42,-0.295
8.422,-0.21
8.424,-0.265
8.426,-0.32
8.428,-0.405
8.43,-0.43
8.432,-0.51
8.434,-0.455
8.436,-0.41
8.438,-0.33
8.44,-0.315
8.442,-0.21
8.444,-0.26
8.446,-0.305
8.448,-0.375
8.45,-0.41
8.452,-0.5
8.454,-0.47
8.456,-0.4
8.458,-0.325
8.46,-0.3
8.462,-0.21
8.464,-0.24
8.466,-0.285
8.468,-0.355
8.47,-0.39
8.472,-0.48
8.474,-0.46
8.476,-0.37
8.478,-0.3
8.48,-0.28
8.482,-0.22
8.484,-0.245
8.486,-0.305
8.488,-0.36
8.49,-0.38
8.492,-0.46
8.494,-0.425
8.496,-0.36
8.498,-0.295
8.5,-0.27
8.502,-0.18
8.504,-0.21
8.506,-0.245
8.508,-0.36
8.51,-0.405
8.512,-0.435
8.514,-0.435
8.516,-0.375
8.518,-0.305
8.52,-0.26
8.522,-0.165
8.524,-0.185
8.526,-0.27
8.528,-0.34
8.53,-0.365
8.532,-0.395
8.534,-0.39
8.536,-0.315
8.538,-0.265
8.54,-0.215
8.542,-0.155
8.544,-0.175
8.546,-0.25
8.548,-0.315
8.55,-0.345
8.552,-0.395
8.554,-0.36
8.556,-0.265
8.558,-0.185
8.56,-0.13
8.562,-0.08
8.564,-0.14
8.566,-0.195
8.568,-0.26
8.57,-0.29
8.572,-0.34
8.574,-0.325
8.576,-0.23
8.578,-0.165
8.58,-0.09
8.582,-0.04
8.584,-0.08
8.586,-0.165
8.588,-0.195
8.59,-0.23
8.592,-0.27
8.594,-0.265
8.596,-0.18
8.598,-0.13
8.6,-0.075
8.602,-0.045
8.604,-0.07
8.606,-0.125
8.608,-0.17
8.61,-0.23
8.612,-0.26
8.614,-0.19
8.616,-0.11
8.618,-0.055
8.62,-0.005
8.622,0.03
8.624,-0.035
8.626,-0.11
8.628,-0.15
8.63,-0.225
8.632,-0.205
8.634,-0.205
8.636,-0.12
8.638,-0.105
8.64,-0.015
8.642,-0.005
8.644,-0.025
8.646,-0.15
8.648,-0.21
8.65,-0.3
8.652,-0.3
8.654,-0.28
8.656,-0.18
8.658,-0.165
8.66,-0.105
8.662,-0.115
8.664,-0.14
8.666,-0.22
8.668,-0.29
8.67,-0.37
8.672,-0.345
8.674,-0.315
8.676,-0.23
8.678,-0.19
8.68,-0.125
8.682,-0.135
8.684,-0.21
8.686,-0.33
8.688,-0.405
8.69,-0.47
8.692,-0.425
8.694,-0.395
8.696,-0.29
8.698,-0.28
8.7,-0.195
8.702,-0.25
8.704,-0.29
8.706,-0.385
8.708,-0.41
8.71,-0.515
8.712,-0.465
8.714,-0.415
8.716,-0.33
8.718,-0.3
8.72,-0.215
8.722,-0.27
8.724,-0.315
8.726,-0.385
8.728,-0.41
8.73,-0.5
8.732,-0.455
8.734,-0.41
8.736,-0.31
8.738,-0.31
8.74,-0.235
8.742,-0.265
8.744,-0.315
8.746,-0.395
8.748,-0.4
8.75,-0.495
8.752,-0.44
8.754,-0.38
8.756,-0.305
8.758,-0.29
8.76,-0.205
8.762,-0.23
8.764,-0.28
8.766,-0.36
8.768,-0.39
8.77,-0.495
8.772,-0.475
8.774,-0.41
8.776,-0.32
8.778,-0.285
8.78,-0.205
8.782,-0.265
8.784,-0.33
8.786,-0.395
8.788,-0.425
8.79,-0.495
8.792,-0.455
8.794,-0.405
8.796,-0.325
8.798,-0.29
8.8,-0.215
8.802,-0.24
8.804,-0.275
8.806,-0.36
8.808,-0.39
8.81,-0.46
8.812,-0.44
8.814,-0.385
8.816,-0.315
8.818,-0.28
8.82,-0.23
8.822,-0.255
8.824,-0.32
8.826,-0.39
8.828,-0.4
8.83,-0.45
8.832,-0.45
8.834,-0.37
8.836,-0.315
8.838,-0.27
8.84,-0.215
8.842,-0.24
8.844,-0.315
8.846,-0.41
8.848,-0.435
8.85,-0.47
8.852,-0.445
8.854,-0.36
8.856,-0.315
8.858,-0.25
8.86,-0.2
8.862,-0.26
8.864,-0.37
8.866,-0.45
8.868,-0.45
8.87,-0.455
8.872,-0.435
8.874,-0.365
8.876,-0.31
8.878,-0.265
8.88,-0.235
8.882,-0.28
8.884,-0.37
8.886,-0.425
8.888,-0.465
8.89,-0.495
8.892,-0.49
8.894,-0.4
8.896,-0.32
8.898,-0.275
8.9,-0.25
8.902,-0.26
8.904,-0.375
8.906,-0.4
8.908,-0.5
8.91,-0.48
8.912,-0.465
8.914,-0.36
8.916,-0.3
8.918,-0.25
8.92,-0.24
8.922,-0.285
8.924,-0.36
8.926,-0.405
8.928,-0.5
8.93,-0.49
8.932,-0.445
8.934,-0.37
8.936,-0.33
8.938,-0.25
8.94,-0.24
8.942,-0.295
8.944,-0.385
8.946,-0.4
8.948,-0.475
8.95,-0.42
8.952,-0.395
8.954,-0.345
8.956,-0.315
8.958,-0.25
8.96,-0.26
8.962,-0.315
8.964,-0.39
8.966,-0.425
8.968,-0.5
8.97,-0.475
8.972,-0.445
8.974,-0.36
8.976,-0.34
8.978,-0.245
8.98,-0.26
8.982,-0.32
8.984,-0.415
8.986,-0.425
8.988,-0.5
8.99,-0.465
8.992,-0.445
8.994,-0.335
8.996,-0.31
8.998,-0.24
9,-0.27
9.002,-0.33
9.004,-0.4
9.006,-0.43
9.008,-0.51
9.01,-0.48
9.012,-0.43
9.014,-0.345
9.016,-0.315
9.018,-0.22
9.02,-0.25
9.022,-0.305
9.024,-0.39
9.026,-0.46
9.028,-0.53
9.03,-0.485
9.032,-0.405
9.034,-0.325
9.036,-0.315
9.038,-0.22
9.04,-0.26
9.042,-0.325
9.044,-0.44
9.046,-0.445
9.048,-0.505
9.05,-0.475
9.052,-0.41
9.054,-0.315
9.056,-0.295
9.058,-0.235
9.06,-0.255
9.062,-0.32
9.064,-0.4
9.066,-0.425
9.068,-0.495
9.07,-0.45
9.072,-0.385
9.074,-0.325
9.076,-0.305
9.078,-0.265
9.08,-0.3
9.082,-0.34
9.084,-0.41
9.086,-0.43
9.088,-0.475
9.09,-0.45
9.092,-0.385
9.094,-0.335
9.096,-0.285
9.098,-0.225
9.1,-0.245
9.102,-0.33
9.104,-0.42
9.106,-0.47
9.108,-0.53
9.11,-0.515
9.112,-0.435
9.114,-0.365
9.116,-0.305
9.118,-0.245
9.12,-0.255
9.122,-0.335
9.124,-0.415
9.126,-0.48
9.128,-0.53
9.13,-0.485
9.132,-0.41
9.134,-0.33
9.136,-0.275
9.138,-0.235
9.14,-0.275
9.142,-0.355
9.144,-0.415
9.146,-0.45
9.148,-0.475
9.15,-0.465
9.152,-0.375
9.154,-0.325
9.156,-0.27
9.158,-0.24
9.16,-0.28
9.162,-0.375
9.164,-0.43
9.166,-0.47
9.168,-0.48
9.17,-0.44
9.172,-0.365
9.174,-0.33
9.176,-0.26
9.178,-0.235
9.18,-0.265
9.182,-0.39
9.184,-0.425
9.186,-0.5
9.188,-0.495
9.19,-0.45
9.192,-0.355
9.194,-0.32
9.196,-0.26
9.198,-0.26
9.2,-0.285
9.202,-0.385
9.204,-0.425
9.206,-0.49
9.208,-0.48
9.21,-0.435
9.212,-0.375
9.214,-0.375
9.216,-0.25
9.218,-0.235
9.22,-0.27
9.222,-0.34
9.224,-0.38
9.226,-0.465
9.228,-0.455
9.23,-0.425
9.232,-0.375
9.234,-0.33
9.236,-0.23
9.238,-0.255
9.24,-0.29
9.242,-0.375
9.244,-0.395
9.246,-0.48
9.248,-0.43
9.25,-0.39
9.252,-0.32
9.254,-0.285
9.256,-0.215
9.258,-0.22
9.26,-0.245
9.262,-0.335
9.264,-0.36
9.266,-0.44
9.268,-0.4
9.27,-0.375
9.272,-0.285
9.274,-0.265
9.276,-0.195
9.278,-0.235
9.28,-0.26
9.282,-0.355
9.284,-0.38
9.286,-0.46
9.288,-0.41
9.29,-0.38
9.292,-0.28
9.294,-0.29
9.296,-0.225
9.298,-0.27
9.3,-0.33
9.302,-0.405
9.304,-0.43
9.306,-0.515
9.308,-0.485
9.31,-0.41
9.312,-0.31
9.314,-0.26
9.316,-0.17
9.318,-0.225
9.32,-0.325
9.322,-0.42
9.324,-0.45
9.326,-0.52
9.328,-0.465
9.33,-0.39
9.332,-0.34
9.334,-0.33
9.336,-0.255
9.338,-0.26
9.34,-0.31
9.342,-0.42
9.344,-0.44
9.346,-0.515
9.348,-0.47
9.35,-0.39
9.352,-0.31
9.354,-0.31
9.356,-0.24
9.358,-0.245
9.36,-0.33
9.362,-0.405
9.364,-0.445
9.366,-0.525
9.368,-0.495
9.37,-0.425
9.372,-0.33
9.374,-0.27
9.376,-0.185
9.378,-0.185
9.38,-0.245
9.382,-0.275
9.384,-0.285
9.386,-0.35
9.388,-0.335
9.39,-0.255
9.392,-0.2
9.394,-0.17
9.396,-0.12
9.398,-0.205
9.4,-0.37
9.402,-0.54
9.404,-0.625
9.406,-0.685
9.408,-0.62
9.41,-0.54
9.412,-0.48
9.414,-0.43
9.416,-0.315
9.418,-0.34
9.42,-0.42
9.422,-0.465
9.424,-0.485
9.426,-0.54
9.428,-0.485
9.43,-0.42
9.432,-0.365
9.434,-0.315
9.436,-0.25
9.438,-0.265
9.44,-0.37
9.442,-0.445
9.444,-0.5
9.446,-0.53
9.448,-0.47
9.45,-0.355
9.452,-0.3
9.454,-0.235
9.456,-0.18
9.458,-0.26
9.46,-0.345
9.462,-0.39
9.464,-0.46
9.466,-0.45
9.468,-0.42
9.47,-0.34
9.472,-0.295
9.474,-0.235
9.476,-0.23
9.478,-0.28
9.48,-0.355
9.482,-0.36
9.484,-0.43
9.486,-0.425
9.488,-0.395
9.49,-0.315
9.492,-0.26
9.494,-0.195
9.496,-0.19
9.498,-0.24
9.5,-0.335
9.502,-0.365
9.504,-0.45
9.506,-0.455
9.508,-0.41
9.51,-0.315
9.512,-0.3
9.514,-0.21
9.516,-0.215
9.518,-0.25
9.52,-0.36
9.522,-0.395
9.524,-0.495
9.526,-0.45
9.528,-0.405
9.53,-0.305
9.532,-0.28
9.534,-0.195
9.536,-0.235
9.538,-0.23
9.54,-0.31
9.542,-0.34
9.544,-0.435
9.546,-0.38
9.548,-0.34
9.55,-0.295
9.552,-0.29
9.554,-0.195
9.556,-0.23
9.558,-0.245
9.56,-0.345
9.562,-0.365
9.564,-0.46
9.566,-0.4
9.568,-0.375
9.57,-0.27
9.572,-0.235
9.574,-0.135
9.576,-0.135
9.578,-0.21
9.58,-0.315
9.582,-0.325
9.584,-0.41
9.586,-0.385
9.588,-0.29
9.59,-0.21
9.592,-0.17
9.594,-0.07
9.596,-0.13
9.598,-0.225
9.6,-0.31
9.602,-0.315
9.604,-0.4
9.606,-0.355
9.608,-0.315
9.61,-0.235
9.612,-0.22
9.614,-0.08
9.616,-0.1
9.618,-0.2
9.62,-0.26
9.622,-0.295
9.624,-0.36
9.626,-0.32
9.628,-0.245
9.63,-0.14
9.632,-0.14
9.634,-0.065
9.636,-0.07
9.638,-0.115
9.64,-0.2
9.642,-0.22
9.644,-0.28
9.646,-0.265
9.648,-0.195
9.65,-0.11
9.652,-0.08
9.654,0.005
9.656,-0.005
9.658,-0.095
9.66,-0.15
9.662,-0.16
9.664,-0.25
9.666,-0.205
9.668,-0.135
9.67,-0.05
9.672,-0.015
9.674,0.045
9.676,0.035
9.678,-0.04
9.68,-0.1
9.682,-0.15
9.684,-0.215
9.686,-0.175
9.688,-0.09
9.69,-0.02
9.692,0.005
9.694,0.065
9.696,0.01
9.698,-0.08
9.7,-0.14
9.702,-0.18
9.704,-0.215
9.706,-0.21
9.708,-0.16
9.71,-0.095
9.712,-0.02
9.714,0
9.716,-0.03
9.718,-0.095
9.72,-0.155
9.722,-0.23
9.724,-0.26
9.726,-0.245
9.728,-0.195
9.73,-0.14
9.732,-0.11
9.734,-0.08
9.736,-0.145
9.738,-0.23
9.74,-0.275
9.742,-0.35
9.744,-0.37
9.746,-0.335
9.748,-0.28
9.75,-0.215
9.752,-0.15
9.754,-0.16
9.756,-0.21
9.758,-0.285
9.76,-0.34
9.762,-0.44
9.764,-0.435
9.766,-0.41
9.768,-0.35
9.77,-0.295
9.772,-0.235
9.774,-0.225
9.776,-0.26
9.778,-0.34
9.78,-0.365
9.782,-0.44
9.784,-0.405
9.786,-0.42
9.788,-0.32
9.79,-0.285
9.792,-0.215
9.794,-0.24
9.796,-0.27
9.798,-0.36
9.8,-0.4
9.802,-0.515
9.804,-0.47
9.806,-0.435
9.808,-0.325
9.81,-0.3
9.812,-0.22
9.814,-0.25
9.816,-0.29
9.818,-0.355
9.82,-0.39
9.822,-0.465
9.824,-0.45
9.826,-0.4
9.828,-0.3
9.83,-0.275
9.832,-0.185
9.834,-0.23
9.836,-0.28
9.838,-0.345
9.84,-0.37
9.842,-0.47
9.844,-0.405
9.846,-0.365
9.848,-0.28
9.85,-0.28
9.852,-0.19
9.854,-0.215
9.856,-0.295
9.858,-0.365
9.86,-0.37
9.862,-0.445
9.864,-0.395
9.866,-0.365
9.868,-0.29
9.87,-0.28
9.872,-0.22
9.874,-0.215
9.876,-0.265
9.878,-0.335
9.88,-0.36
9.882,-0.43
9.884,-0.43
9.886,-0.405
9.888,-0.32
9.89,-0.3
9.892,-0.185
9.894,-0.205
9.896,-0.255
9.898,-0.35
9.9,-0.4
9.902,-0.47
9.904,-0.44
9.906,-0.385
9.908,-0.32
9.91,-0.295
9.912,-0.22
9.914,-0.245
9.916,-0.285
9.918,-0.36
9.92,-0.39
9.922,-0.485
9.924,-0.47
9.926,-0.365
9.928,-0.305
9.93,-0.29
9.932,-0.2
9.934,-0.24
9.936,-0.295
9.938,-0.38
9.94,-0.42
9.942,-0.455
9.944,-0.445
9.946,-0.375
9.948,-0.33
9.95,-0.28
9.952,-0.2
9.954,-0.22
9.956,-0.315
9.958,-0.385
9.96,-0.41
9.962,-0.475
9.964,-0.455
9.966,-0.39
9.968,-0.305
9.97,-0.26
9.972,-0.21
9.974,-0.23
9.976,-0.305
9.978,-0.375
9.98,-0.425
9.982,-0.47
9.984,-0.45
9.986,-0.345
9.988,-0.29
9.99,-0.23
9.992,-0.205
9.994,-0.23
9.996,-0.31
9.998,-0.37
