0,0.365
0.002,0.47
0.004,0.49
0.006,0.475
0.008,0.425
0.01,0.325
0.012,0.22
0.014,0.205
0.016,0.22
0.018,0.28
0.02,0.395
0.022,0.49
0.024,0.5
0.026,0.505
0.028,0.44
0.03,0.325
0.032,0.235
0.034,0.21
0.036,0.245
0.038,0.325
0.04,0.425
0.042,0.49
0.044,0.5
0.046,0.485
0.048,0.42
0.05,0.31
0.052,0.235
0.054,0.22
0.056,0.24
0.058,0.31
0.06,0.43
0.062,0.485
0.064,0.515
0.066,0.495
0.068,0.435
0.07,0.305
0.072,0.235
0.074,0.22
0.076,0.255
0.078,0.3
0.08,0.445
0.082,0.495
0.084,0.515
0.086,0.49
0.088,0.42
0.09,0.295
0.092,0.24
0.094,0.22
0.096,0.245
0.098,0.315
0.1,0.445
0.102,0.505
0.104,0.52
0.106,0.49
0.108,0.42
0.11,0.29
0.112,0.23
0.114,0.215
0.116,0.25
0.118,0.32
0.12,0.455
0.122,0.505
0.124,0.515
0.126,0.485
0.128,0.415
0.13,0.27
0.132,0.225
0.134,0.23
0.136,0.26
0.138,0.335
0.14,0.465
0.142,0.495
0.144,0.525
0.146,0.485
0.148,0.42
0.15,0.285
0.152,0.235
0.154,0.225
0.156,0.255
0.158,0.325
0.16,0.47
0.162,0.52
0.164,0.53
0.166,0.49
0.168,0.415
0.17,0.275
0.172,0.24
0.174,0.235
0.176,0.28
0.178,0.355
0.18,0.485
0.182,0.515
0.184,0.535
0.186,0.475
0.188,0.395
0.19,0.275
0.192,0.235
0.194,0.23
0.196,0.28
0.198,0.375
0.2,0.505
0.202,0.53
0.204,0.54
0.206,0.49
0.208,0.405
0.21,0.295
0.212,0.26
0.214,0.265
0.216,0.335
0.218,0.425
0.22,0.555
0.222,0.58
0.224,0.57
0.226,0.505
0.228,0.415
0.23,0.275
0.232,0.25
0.234,0.24
0.236,0.305
0.238,0.395
0.24,0.5
0.242,0.515
0.244,0.5
0.246,0.45
0.248,0.35
0.25,0.245
0.252,0.22
0.254,0.225
0.256,0.285
0.258,0.385
0.26,0.49
0.262,0.515
0.264,0.515
0.266,0.455
0.268,0.355
0.27,0.245
0.272,0.225
0.274,0.215
0.276,0.285
0.278,0.395
0.28,0.49
0.282,0.515
0.284,0.5
0.286,0.44
0.288,0.335
0.29,0.24
0.292,0.215
0.294,0.23
0.296,0.295
0.298,0.405
0.3,0.49
0.302,0.505
0.304,0.5
0.306,0.425
0.308,0.305
0.31,0.22
0.312,0.195
0.314,0.225
0.316,0.31
0.318,0.43
0.32,0.565
0.322,0.64
0.324,0.705
0.326,0.75
0.328,0.73
0.33,0.745
0.332,0.815
0.334,0.94
0.336,1.085
0.338,1.21
0.34,1.17
0.342,1.065
0.344,0.93
0.346,0.77
0.348,0.525
0.35,0.32
0.352,0.16
0.354,0.045
0.356,0.025
0.358,0.15
0.36,0.215
0.362,0.225
0.364,0.2
0.366,0.155
0.368,0.06
0.37,0.02
0.372,0.035
0.374,0.085
0.376,0.19
0.378,0.35
0.38,0.42
0.382,0.465
0.384,0.445
0.386,0.395
0.388,0.28
0.39,0.235
0.392,0.23
0.394,0.26
0.396,0.335
0.398,0.465
0.4,0.52
0.402,0.535
0.404,0.495
0.406,0.425
0.408,0.3
0.41,0.265
0.412,0.245
0.414,0.295
0.416,0.355
0.418,0.495
0.42,0.545
0.422,0.555
0.424,0.51
0.426,0.445
0.428,0.32
0.43,0.27
0.432,0.27
0.434,0.31
0.436,0.39
0.438,0.525
0.44,0.55
0.442,0.57
0.444,0.52
0.446,0.445
0.448,0.31
0.45,0.275
0.452,0.27
0.454,0.32
0.456,0.405
0.458,0.535
0.46,0.57
0.462,0.575
0.464,0.535
0.466,0.46
0.468,0.325
0.47,0.29
0.472,0.29
0.474,0.355
0.476,0.43
0.478,0.555
0.48,0.6
0.482,0.615
0.484,0.555
0.486,0.48
0.488,0.35
0.49,0.325
0.492,0.325
0.494,0.38
0.496,0.48
0.498,0.61
0.5,0.64
0.502,0.65
0.504,0.605
0.506,0.515
0.508,0.4
0.51,0.385
0.512,0.385
0.514,0.46
0.516,0.565
0.518,0.69
0.52,0.72
0.522,0.715
0.524,0.665
0.526,0.58
0.528,0.485
0.53,0.46
0.532,0.48
0.534,0.53
0.536,0.64
0.538,0.755
0.54,0.775
0.542,0.77
0.544,0.71
0.546,0.605
0.548,0.515
0.55,0.5
0.552,0.505
0.554,0.57
0.556,0.665
0.558,0.755
0.56,0.775
0.562,0.755
0.564,0.685
0.566,0.56
0.568,0.455
0.57,0.415
0.572,0.415
0.574,0.47
0.576,0.56
0.578,0.625
0.58,0.625
0.582,0.595
0.584,0.51
0.586,0.385
0.588,0.285
0.59,0.25
0.592,0.255
0.594,0.315
0.596,0.425
0.598,0.485
0.6,0.5
0.602,0.465
0.604,0.4
0.606,0.275
0.608,0.2
0.61,0.18
0.612,0.19
0.614,0.255
0.616,0.375
0.618,0.44
0.62,0.455
0.622,0.44
0.624,0.36
0.626,0.23
0.628,0.155
0.63,0.15
0.632,0.175
0.634,0.245
0.636,0.38
0.638,0.42
0.64,0.44
0.642,0.42
0.644,0.34
0.646,0.2
0.648,0.15
0.65,0.14
0.652,0.17
0.654,0.24
0.656,0.37
0.658,0.425
0.66,0.435
0.662,0.395
0.664,0.325
0.666,0.2
0.668,0.14
0.67,0.135
0.672,0.165
0.674,0.24
0.676,0.365
0.678,0.425
0.68,0.425
0.682,0.385
0.684,0.325
0.686,0.185
0.688,0.135
0.69,0.13
0.692,0.17
0.694,0.24
0.696,0.38
0.698,0.42
0.7,0.425
0.702,0.39
0.704,0.315
0.706,0.18
0.708,0.14
0.71,0.13
0.712,0.175
0.714,0.25
0.716,0.385
0.718,0.42
0.72,0.435
0.722,0.385
0.724,0.315
0.726,0.18
0.728,0.14
0.73,0.135
0.732,0.185
0.734,0.27
0.736,0.405
0.738,0.425
0.74,0.435
0.742,0.38
0.744,0.31
0.746,0.18
0.748,0.145
0.75,0.14
0.752,0.195
0.754,0.28
0.756,0.4
0.758,0.42
0.76,0.43
0.762,0.385
0.764,0.3
0.766,0.175
0.768,0.145
0.77,0.14
0.772,0.195
0.774,0.29
0.776,0.405
0.778,0.435
0.78,0.44
0.782,0.37
0.784,0.275
0.786,0.155
0.788,0.14
0.79,0.14
0.792,0.2
0.794,0.28
0.796,0.405
0.798,0.43
0.8,0.43
0.802,0.36
0.804,0.265
0.806,0.155
0.808,0.125
0.81,0.13
0.812,0.19
0.814,0.3
0.816,0.4
0.818,0.425
0.82,0.415
0.822,0.355
0.824,0.255
0.826,0.16
0.828,0.13
0.83,0.135
0.832,0.195
0.834,0.305
0.836,0.395
0.838,0.415
0.84,0.395
0.842,0.34
0.844,0.23
0.846,0.14
0.848,0.12
0.85,0.13
0.852,0.2
0.854,0.315
0.856,0.39
0.858,0.415
0.86,0.395
0.862,0.345
0.864,0.225
0.866,0.145
0.868,0.115
0.87,0.14
0.872,0.205
0.874,0.315
0.876,0.39
0.878,0.415
0.88,0.395
0.882,0.325
0.884,0.205
0.886,0.145
0.888,0.135
0.89,0.14
0.892,0.21
0.894,0.335
0.896,0.38
0.898,0.41
0.9,0.38
0.902,0.31
0.904,0.19
0.906,0.135
0.908,0.115
0.91,0.14
0.912,0.205
0.914,0.345
0.916,0.395
0.918,0.41
0.92,0.38
0.922,0.315
0.924,0.19
0.926,0.13
0.928,0.125
0.93,0.155
0.932,0.21
0.934,0.355
0.936,0.4
0.938,0.435
0.94,0.395
0.942,0.325
0.944,0.185
0.946,0.135
0.948,0.12
0.95,0.16
0.952,0.24
0.954,0.39
0.956,0.44
0.958,0.465
0.96,0.435
0.962,0.37
0.964,0.235
0.966,0.195
0.968,0.17
0.97,0.2
0.972,0.26
0.974,0.38
0.976,0.425
0.978,0.445
0.98,0.38
0.982,0.295
0.984,0.16
0.986,0.115
0.988,0.095
0.99,0.14
0.992,0.22
0.994,0.35
0.996,0.395
0.998,0.405
1,0.36
1.002,0.29
1.004,0.155
1.006,0.12
1.008,0.11
1.01,0.155
1.012,0.24
1.014,0.37
1.016,0.4
1.018,0.395
1.02,0.355
1.022,0.27
1.024,0.15
1.026,0.115
1.028,0.1
1.03,0.155
1.032,0.25
1.034,0.365
1.036,0.405
1.038,0.405
1.04,0.345
1.042,0.26
1.044,0.135
1.046,0.11
1.048,0.105
1.05,0.165
1.052,0.255
1.054,0.365
1.056,0.39
1.058,0.4
1.06,0.37
1.062,0.355
1.064,0.295
1.066,0.335
1.068,0.445
1.07,0.605
1.072,0.805
1.074,1.005
1.076,1.135
1.078,1.205
1.08,1.14
1.082,0.925
1.084,0.68
1.086,0.545
1.088,0.445
1.09,0.39
1.092,0.365
1.094,0.315
1.096,0.18
1.098,0.1
1.1,0.03
1.102,-0.06
1.104,-0.15
1.106,-0.165
1.108,-0.13
1.11,-0.04
1.112,0.09
1.114,0.205
1.116,0.26
1.118,0.3
1.12,0.245
1.122,0.17
1.124,0.1
1.126,0.09
1.128,0.115
1.13,0.2
1.132,0.325
1.134,0.4
1.136,0.415
1.138,0.415
1.14,0.35
1.142,0.245
1.144,0.16
1.146,0.145
1.148,0.17
1.15,0.23
1.152,0.355
1.154,0.425
1.156,0.455
1.158,0.425
1.16,0.37
1.162,0.25
1.164,0.18
1.166,0.16
1.168,0.185
1.17,0.25
1.172,0.385
1.174,0.445
1.176,0.46
1.178,0.435
1.18,0.37
1.182,0.25
1.184,0.19
1.186,0.17
1.188,0.2
1.19,0.27
1.192,0.395
1.194,0.46
1.196,0.48
1.198,0.445
1.2,0.38
1.202,0.265
1.204,0.2
1.206,0.2
1.208,0.22
1.21,0.29
1.212,0.44
1.214,0.495
1.216,0.5
1.218,0.47
1.22,0.405
1.222,0.275
1.224,0.225
1.226,0.215
1.228,0.26
1.23,0.335
1.232,0.475
1.234,0.53
1.236,0.545
1.238,0.5
1.24,0.445
1.242,0.315
1.244,0.275
1.246,0.27
1.248,0.315
1.25,0.405
1.252,0.545
1.254,0.585
1.256,0.605
1.258,0.57
1.26,0.505
1.262,0.375
1.264,0.34
1.266,0.335
1.268,0.39
1.27,0.48
1.272,0.615
1.274,0.655
1.276,0.675
1.278,0.635
1.28,0.56
1.282,0.44
1.284,0.41
1.286,0.4
1.288,0.46
1.29,0.545
1.292,0.675
1.294,0.7
1.296,0.715
1.298,0.655
1.3,0.58
1.302,0.45
1.304,0.41
1.306,0.39
1.308,0.445
1.31,0.505
1.312,0.625
1.314,0.63
1.316,0.625
1.318,0.555
1.32,0.445
1.322,0.295
1.324,0.26
1.326,0.24
1.328,0.27
1.33,0.36
1.332,0.46
1.334,0.475
1.336,0.46
1.338,0.395
1.34,0.29
1.342,0.16
1.344,0.14
1.346,0.125
1.348,0.195
1.35,0.27
1.352,0.375
1.354,0.4
1.356,0.385
1.358,0.32
1.36,0.215
1.362,0.11
1.364,0.085
1.366,0.085
1.368,0.145
1.37,0.255
1.372,0.35
1.374,0.37
1.376,0.36
1.378,0.3
1.38,0.185
1.382,0.095
1.384,0.075
1.386,0.085
1.388,0.14
1.39,0.26
1.392,0.335
1.394,0.365
1.396,0.355
1.398,0.29
1.4,0.175
1.402,0.085
1.404,0.065
1.406,0.08
1.408,0.15
1.41,0.27
1.412,0.35
1.414,0.37
1.416,0.345
1.418,0.28
1.42,0.165
1.422,0.085
1.424,0.065
1.426,0.09
1.428,0.145
1.43,0.275
1.432,0.345
1.434,0.37
1.436,0.34
1.438,0.275
1.44,0.16
1.442,0.085
1.444,0.06
1.446,0.085
1.448,0.15
1.45,0.28
1.452,0.345
1.454,0.36
1.456,0.33
1.458,0.27
1.46,0.145
1.462,0.075
1.464,0.07
1.466,0.095
1.468,0.17
1.47,0.285
1.472,0.35
1.474,0.36
1.476,0.34
1.478,0.275
1.48,0.14
1.482,0.085
1.484,0.07
1.486,0.105
1.488,0.175
1.49,0.31
1.492,0.36
1.494,0.37
1.496,0.32
1.498,0.27
1.5,0.15
1.502,0.09
1.504,0.06
1.506,0.11
1.508,0.165
1.51,0.315
1.512,0.37
1.514,0.37
1.516,0.325
1.518,0.24
1.52,0.12
1.522,0.08
1.524,0.07
1.526,0.115
1.528,0.195
1.53,0.32
1.532,0.365
1.534,0.36
1.536,0.31
1.538,0.245
1.54,0.105
1.542,0.055
1.544,0.05
1.546,0.105
1.548,0.175
1.55,0.315
1.552,0.34
1.554,0.345
1.556,0.305
1.558,0.225
1.56,0.1
1.562,0.065
1.564,0.05
1.566,0.11
1.568,0.18
1.57,0.315
1.572,0.34
1.574,0.345
1.576,0.285
1.578,0.2
1.58,0.075
1.582,0.045
1.584,0.045
1.586,0.095
1.588,0.19
1.59,0.31
1.592,0.33
1.594,0.335
1.596,0.28
1.598,0.195
1.6,0.07
1.602,0.035
1.604,0.04
1.606,0.09
1.608,0.19
1.61,0.31
1.612,0.325
1.614,0.325
1.616,0.27
1.618,0.175
1.62,0.055
1.622,0.035
1.624,0.02
1.626,0.095
1.628,0.195
1.63,0.295
1.632,0.315
1.634,0.315
1.636,0.25
1.638,0.16
1.64,0.05
1.642,0.025
1.644,0.025
1.646,0.095
1.648,0.205
1.65,0.305
1.652,0.32
1.654,0.31
1.656,0.25
1.658,0.14
1.66,0.05
1.662,0.02
1.664,0.035
1.666,0.1
1.668,0.195
1.67,0.285
1.672,0.325
1.674,0.295
1.676,0.24
1.678,0.13
1.68,0.045
1.682,0.035
1.684,0.05
1.686,0.105
1.688,0.22
1.69,0.295
1.692,0.325
1.694,0.33
1.696,0.275
1.698,0.165
1.7,0.085
1.702,0.07
1.704,0.095
1.706,0.155
1.708,0.27
1.71,0.32
1.712,0.335
1.714,0.305
1.716,0.24
1.718,0.12
1.72,0.04
1.722,0.01
1.724,0.025
1.726,0.095
1.728,0.23
1.73,0.28
1.732,0.29
1.734,0.255
1.736,0.19
1.738,0.065
1.74,0.015
1.742,0.005
1.744,0.02
1.746,0.105
1.748,0.235
1.75,0.285
1.752,0.295
1.754,0.265
1.756,0.19
1.758,0.06
1.76,0
1.762,-0.01
1.764,0.03
1.766,0.105
1.768,0.22
1.77,0.285
1.772,0.29
1.774,0.25
1.776,0.175
1.778,0.04
1.78,-0.005
1.782,-0.015
1.784,0.025
1.786,0.085
1.788,0.225
1.79,0.265
1.792,0.265
1.794,0.225
1.796,0.155
1.798,0.035
1.8,0.005
1.802,0.06
1.804,0.165
1.806,0.305
1.808,0.545
1.81,0.695
1.812,0.79
1.814,0.83
1.816,0.86
1.818,0.81
1.82,0.78
1.822,0.655
1.824,0.56
1.826,0.515
1.828,0.55
1.83,0.47
1.832,0.355
1.834,0.165
1.836,-0.09
1.838,-0.295
1.84,-0.34
1.842,-0.34
1.844,-0.29
1.846,-0.195
1.848,-0.045
1.85,0.015
1.852,0.045
1.854,0.02
1.856,-0.03
1.858,-0.11
1.86,-0.11
1.862,-0.1
1.864,-0.025
1.866,0.085
1.868,0.22
1.87,0.26
1.872,0.26
1.874,0.215
1.876,0.125
1.878,0.005
1.88,-0.015
1.882,-0.015
1.884,0.04
1.886,0.135
1.888,0.245
1.89,0.275
1.892,0.27
1.894,0.22
1.896,0.13
1.898,0.015
1.9,-0.01
1.902,0.005
1.904,0.06
1.906,0.16
1.908,0.26
1.91,0.29
1.912,0.285
1.914,0.22
1.916,0.13
1.918,0.04
1.92,0.005
1.922,0.01
1.924,0.075
1.926,0.185
1.928,0.275
1.93,0.3
1.932,0.3
1.934,0.235
1.936,0.125
1.938,0.03
1.94,0.02
1.942,0.035
1.944,0.105
1.946,0.21
1.948,0.29
1.95,0.32
1.952,0.31
1.954,0.26
1.956,0.14
1.958,0.06
1.96,0.035
1.962,0.055
1.964,0.125
1.966,0.245
1.968,0.32
1.97,0.34
1.972,0.33
1.974,0.265
1.976,0.15
1.978,0.085
1.98,0.07
1.982,0.105
1.984,0.165
1.986,0.29
1.988,0.36
1.99,0.385
1.992,0.37
1.994,0.31
1.996,0.2
1.998,0.135
2,0.12
2.002,0.155
2.004,0.235
2.006,0.37
2.008,0.435
2.01,0.465
2.012,0.435
2.014,0.38
2.016,0.26
2.018,0.21
2.02,0.205
2.022,0.235
2.024,0.3
2.026,0.435
2.028,0.475
2.03,0.5
2.032,0.47
2.034,0.41
2.036,0.28
2.038,0.225
2.04,0.21
2.042,0.235
2.044,0.295
2.046,0.42
2.048,0.46
2.05,0.47
2.052,0.415
2.054,0.325
2.056,0.18
2.058,0.115
2.06,0.08
2.062,0.12
2.064,0.16
2.066,0.265
2.068,0.29
2.07,0.305
2.072,0.245
2.074,0.17
2.076,0.015
2.078,-0.03
2.08,-0.055
2.082,-0.025
2.084,0.045
2.086,0.16
2.088,0.2
2.09,0.195
2.092,0.14
2.094,0.07
2.096,-0.07
2.098,-0.115
2.1,-0.12
2.102,-0.07
2.104,0.005
2.106,0.13
2.108,0.165
2.11,0.165
2.112,0.12
2.114,0.04
2.116,-0.085
2.118,-0.115
2.12,-0.125
2.122,-0.075
2.124,0.005
2.126,0.13
2.128,0.15
2.13,0.165
2.132,0.105
2.134,0.03
2.136,-0.09
2.138,-0.135
2.14,-0.14
2.142,-0.085
2.144,0.005
2.146,0.13
2.148,0.16
2.15,0.155
2.152,0.09
2.154,-0.005
2.156,-0.105
2.158,-0.14
2.16,-0.13
2.162,-0.08
2.164,0.015
2.166,0.125
2.168,0.15
2.17,0.145
2.172,0.1
2.174,0
2.176,-0.115
2.178,-0.145
2.18,-0.13
2.182,-0.065
2.184,0.035
2.186,0.135
2.188,0.16
2.19,0.15
2.192,0.095
2.194,-0.005
2.196,-0.115
2.198,-0.135
2.2,-0.125
2.202,-0.065
2.204,0.04
2.206,0.135
2.208,0.17
2.21,0.15
2.212,0.08
2.214,-0.02
2.216,-0.12
2.218,-0.13
2.22,-0.115
2.222,-0.065
2.224,0.07
2.226,0.145
2.228,0.15
2.23,0.145
2.232,0.08
2.234,-0.03
2.236,-0.11
2.238,-0.135
2.24,-0.115
2.242,-0.045
2.244,0.065
2.246,0.14
2.248,0.155
2.25,0.135
2.252,0.07
2.254,-0.045
2.256,-0.12
2.258,-0.14
2.26,-0.11
2.262,-0.045
2.264,0.06
2.266,0.125
2.268,0.145
2.27,0.13
2.272,0.065
2.274,-0.055
2.276,-0.13
2.278,-0.145
2.28,-0.11
2.282,-0.05
2.284,0.075
2.286,0.12
2.288,0.14
2.29,0.105
2.292,0.045
2.294,-0.085
2.296,-0.135
2.298,-0.15
2.3,-0.125
2.302,-0.06
2.304,0.07
2.306,0.12
2.308,0.13
2.31,0.095
2.312,0.03
2.314,-0.09
2.316,-0.15
2.318,-0.16
2.32,-0.12
2.322,-0.05
2.324,0.085
2.326,0.125
2.328,0.14
2.33,0.1
2.332,0.03
2.334,-0.105
2.336,-0.145
2.338,-0.165
2.34,-0.12
2.342,-0.065
2.344,0.075
2.346,0.125
2.348,0.14
2.35,0.095
2.352,0.02
2.354,-0.11
2.356,-0.155
2.358,-0.175
2.36,-0.125
2.362,-0.045
2.364,0.09
2.366,0.13
2.368,0.145
2.37,0.095
2.372,0.005
2.374,-0.115
2.376,-0.15
2.378,-0.16
2.38,-0.115
2.382,-0.04
2.384,0.095
2.386,0.12
2.388,0.135
2.39,0.085
2.392,0.005
2.394,-0.12
2.396,-0.15
2.398,-0.15
2.4,-0.105
2.402,-0.02
2.404,0.105
2.406,0.135
2.408,0.14
2.41,0.095
2.412,0.02
2.414,-0.095
2.416,-0.12
2.418,-0.105
2.42,-0.05
2.422,0.025
2.424,0.135
2.426,0.15
2.428,0.14
2.43,0.085
2.432,-0.015
2.434,-0.125
2.436,-0.155
2.438,-0.16
2.44,-0.11
2.442,-0.025
2.444,0.075
2.446,0.09
2.448,0.09
2.45,0.045
2.452,-0.055
2.454,-0.165
2.456,-0.185
2.458,-0.18
2.46,-0.12
2.462,-0.02
2.464,0.085
2.466,0.105
2.468,0.09
2.47,0.045
2.472,-0.06
2.474,-0.16
2.476,-0.19
2.478,-0.175
2.48,-0.115
2.482,-0.02
2.484,0.075
2.486,0.095
2.488,0.08
2.49,0.015
2.492,-0.09
2.494,-0.175
2.496,-0.195
2.498,-0.185
2.5,-0.125
2.502,-0.01
2.504,0.06
2.506,0.085
2.508,0.065
2.51,-0.01
2.512,-0.12
2.514,-0.18
2.516,-0.175
2.518,-0.09
2.52,0.04
2.522,0.235
2.524,0.41
2.526,0.535
2.528,0.61
2.53,0.635
2.532,0.62
2.534,0.635
2.536,0.605
2.538,0.51
2.54,0.445
2.542,0.445
2.544,0.405
2.546,0.305
2.548,0.135
2.55,-0.09
2.552,-0.365
2.554,-0.49
2.556,-0.5
2.558,-0.47
2.56,-0.4
2.562,-0.26
2.564,-0.185
2.566,-0.14
2.568,-0.145
2.57,-0.195
2.572,-0.28
2.574,-0.31
2.576,-0.305
2.578,-0.255
2.58,-0.16
2.582,-0.015
2.584,0.06
2.586,0.085
2.588,0.065
2.59,-0.005
2.592,-0.13
2.594,-0.18
2.596,-0.19
2.598,-0.155
2.6,-0.095
2.602,0.045
2.604,0.09
2.606,0.105
2.608,0.075
2.61,0
2.612,-0.13
2.614,-0.17
2.616,-0.185
2.618,-0.14
2.62,-0.06
2.622,0.075
2.624,0.11
2.626,0.12
2.628,0.085
2.63,0.015
2.632,-0.12
2.634,-0.155
2.636,-0.165
2.638,-0.12
2.64,-0.04
2.642,0.085
2.644,0.13
2.646,0.135
2.648,0.095
2.65,0.015
2.652,-0.115
2.654,-0.15
2.656,-0.145
2.658,-0.095
2.66,-0.005
2.662,0.12
2.664,0.155
2.666,0.15
2.668,0.105
2.67,0.035
2.672,-0.085
2.674,-0.12
2.676,-0.115
2.678,-0.065
2.68,0.03
2.682,0.155
2.684,0.18
2.686,0.19
2.688,0.14
2.69,0.055
2.692,-0.065
2.694,-0.085
2.696,-0.09
2.698,-0.02
2.7,0.08
2.702,0.205
2.704,0.245
2.706,0.25
2.708,0.19
2.71,0.115
2.712,0.01
2.714,-0.02
2.716,0
2.718,0.065
2.72,0.17
2.722,0.28
2.724,0.31
2.726,0.315
2.728,0.25
2.73,0.18
2.732,0.075
2.734,0.06
2.736,0.07
2.738,0.13
2.74,0.24
2.742,0.345
2.744,0.365
2.746,0.34
2.748,0.285
2.75,0.2
2.752,0.09
2.754,0.07
2.756,0.08
2.758,0.135
2.76,0.235
2.762,0.315
2.764,0.32
2.766,0.29
2.768,0.21
2.77,0.09
2.772,-0.01
2.774,-0.05
2.776,-0.055
2.778,-0.01
2.78,0.085
2.782,0.15
2.784,0.15
2.786,0.13
2.788,0.05
2.79,-0.08
2.792,-0.17
2.794,-0.21
2.796,-0.195
2.798,-0.135
2.8,-0.015
2.802,0.045
2.804,0.05
2.806,0.03
2.808,-0.045
2.81,-0.165
2.812,-0.235
2.814,-0.26
2.816,-0.235
2.818,-0.175
2.82,-0.055
2.822,0.005
2.824,0.015
2.826,-0.015
2.828,-0.065
2.83,-0.19
2.832,-0.255
2.834,-0.275
2.836,-0.245
2.838,-0.19
2.84,-0.06
2.842,-0.005
2.844,0.015
2.846,-0.02
2.848,-0.085
2.85,-0.22
2.852,-0.265
2.854,-0.285
2.856,-0.255
2.858,-0.19
2.86,-0.06
2.862,-0.01
2.864,0
2.866,-0.04
2.868,-0.095
2.87,-0.225
2.872,-0.275
2.874,-0.29
2.876,-0.255
2.878,-0.18
2.88,-0.05
2.882,-0.005
2.884,0.01
2.886,-0.035
2.888,-0.105
2.89,-0.225
2.892,-0.275
2.894,-0.285
2.896,-0.255
2.898,-0.175
2.9,-0.035
2.902,0
2.904,0.015
2.906,-0.04
2.908,-0.105
2.91,-0.23
2.912,-0.26
2.914,-0.275
2.916,-0.225
2.918,-0.155
2.92,-0.03
2.922,0.005
2.924,0.015
2.926,-0.035
2.928,-0.11
2.93,-0.24
2.932,-0.265
2.934,-0.265
2.936,-0.205
2.938,-0.14
2.94,-0.015
2.942,0.02
2.944,0.015
2.946,-0.035
2.948,-0.115
2.95,-0.23
2.952,-0.26
2.954,-0.275
2.956,-0.22
2.958,-0.135
2.96,-0.015
2.962,0.015
2.964,0.015
2.966,-0.03
2.968,-0.12
2.97,-0.245
2.972,-0.265
2.974,-0.265
2.976,-0.22
2.978,-0.12
2.98,-0.005
2.982,0.015
2.984,0.02
2.986,-0.05
2.988,-0.135
2.99,-0.245
2.992,-0.27
2.994,-0.275
2.996,-0.215
2.998,-0.11
3,-0.02
3.002,0.005
3.004,-0.005
3.006,-0.07
3.008,-0.16
3.01,-0.26
3.012,-0.29
3.014,-0.28
3.016,-0.21
3.018,-0.115
3.02,-0.02
3.022,0.005
3.024,-0.01
3.026,-0.065
3.028,-0.17
3.03,-0.26
3.032,-0.29
3.034,-0.285
3.036,-0.205
3.038,-0.095
3.04,-0.02
3.042,0.005
3.044,0
3.046,-0.08
3.048,-0.19
3.05,-0.275
3.052,-0.3
3.054,-0.27
3.056,-0.21
3.058,-0.1
3.06,-0.015
3.062,0
3.064,-0.015
3.066,-0.08
3.068,-0.195
3.07,-0.27
3.072,-0.28
3.074,-0.265
3.076,-0.195
3.078,-0.08
3.08,-0.01
3.082,0
3.084,-0.015
3.086,-0.08
3.088,-0.21
3.09,-0.275
3.092,-0.295
3.094,-0.265
3.096,-0.195
3.098,-0.07
3.1,-0.01
3.102,0.01
3.104,-0.015
3.106,-0.085
3.108,-0.205
3.11,-0.255
3.112,-0.28
3.114,-0.235
3.116,-0.16
3.118,-0.015
3.12,0.045
3.122,0.07
3.124,0.025
3.126,-0.035
3.128,-0.175
3.13,-0.245
3.132,-0.265
3.134,-0.235
3.136,-0.17
3.138,-0.045
3.14,0.005
3.142,0.02
3.144,-0.03
3.146,-0.105
3.148,-0.235
3.15,-0.295
3.152,-0.3
3.154,-0.26
3.156,-0.185
3.158,-0.04
3.16,-0.005
3.162,-0.005
3.164,-0.03
3.166,-0.11
3.168,-0.245
3.17,-0.28
3.172,-0.295
3.174,-0.255
3.176,-0.175
3.178,-0.055
3.18,-0.005
3.182,0.005
3.184,-0.055
3.186,-0.12
3.188,-0.25
3.19,-0.3
3.192,-0.31
3.194,-0.26
3.196,-0.185
3.198,-0.05
3.2,-0.01
3.202,0
3.204,-0.055
3.206,-0.135
3.208,-0.265
3.21,-0.295
3.212,-0.3
3.214,-0.25
3.216,-0.175
3.218,-0.05
3.22,-0.02
3.222,0.035
3.224,0.05
3.226,0.025
3.228,-0.01
3.23,0.075
3.232,0.165
3.234,0.31
3.236,0.49
3.238,0.715
3.24,0.81
3.242,0.775
3.244,0.59
3.246,0.385
3.248,0.15
3.25,0.025
3.252,-0.095
3.254,-0.185
3.256,-0.25
3.258,-0.265
3.26,-0.305
3.262,-0.305
3.264,-0.36
3.266,-0.455
3.268,-0.545
3.27,-0.55
3.272,-0.51
3.274,-0.435
3.276,-0.31
3.278,-0.165
3.28,-0.105
3.282,-0.09
3.284,-0.13
3.286,-0.205
3.288,-0.295
3.29,-0.3
3.292,-0.28
3.294,-0.21
3.296,-0.11
3.298,-0.015
3.3,0.005
3.302,0.01
3.304,-0.05
3.306,-0.155
3.308,-0.24
3.31,-0.27
3.312,-0.255
3.314,-0.19
3.316,-0.07
3.318,0.01
3.32,0.04
3.322,0.025
3.324,-0.05
3.326,-0.145
3.328,-0.22
3.33,-0.24
3.332,-0.215
3.334,-0.155
3.336,-0.03
3.338,0.045
3.34,0.055
3.342,0.04
3.344,-0.02
3.346,-0.145
3.348,-0.21
3.35,-0.23
3.352,-0.21
3.354,-0.135
3.356,-0.01
3.358,0.06
3.36,0.075
3.362,0.055
3.364,-0.005
3.366,-0.125
3.368,-0.185
3.37,-0.2
3.372,-0.17
3.374,-0.105
3.376,0.025
3.378,0.09
3.38,0.11
3.382,0.08
3.384,0.02
3.386,-0.1
3.388,-0.155
3.39,-0.16
3.392,-0.135
3.394,-0.055
3.396,0.08
3.398,0.135
3.4,0.155
3.402,0.13
3.404,0.07
3.406,-0.055
3.408,-0.1
3.41,-0.105
3.412,-0.06
3.414,0.005
3.416,0.155
3.418,0.21
3.42,0.23
3.422,0.21
3.424,0.135
3.426,0.01
3.428,-0.025
3.43,-0.035
3.432,0.015
3.434,0.095
3.436,0.24
3.438,0.3
3.44,0.32
3.442,0.285
3.444,0.21
3.446,0.085
3.448,0.04
3.45,0.03
3.452,0.08
3.454,0.155
3.456,0.28
3.458,0.315
3.46,0.335
3.462,0.285
3.464,0.205
3.466,0.06
3.468,0.015
3.47,-0.005
3.472,0.035
3.474,0.1
3.476,0.21
3.478,0.225
3.48,0.22
3.482,0.135
3.484,0.045
3.486,-0.095
3.488,-0.145
3.49,-0.17
3.492,-0.135
3.494,-0.065
3.496,0.04
3.498,0.075
3.5,0.07
3.502,0.015
3.504,-0.08
3.506,-0.21
3.508,-0.245
3.51,-0.26
3.512,-0.21
3.514,-0.125
3.516,-0.01
3.518,0.015
3.52,0.015
3.522,-0.035
3.524,-0.14
3.526,-0.255
3.528,-0.275
3.53,-0.275
3.532,-0.215
3.534,-0.13
3.536,-0.02
3.538,-0.005
3.54,-0.01
3.542,-0.065
3.544,-0.165
3.546,-0.27
3.548,-0.29
3.55,-0.28
3.552,-0.215
3.554,-0.115
3.556,-0.02
3.558,0
3.56,-0.01
3.562,-0.06
3.564,-0.16
3.566,-0.26
3.568,-0.28
3.57,-0.275
3.572,-0.215
3.574,-0.12
3.576,-0.03
3.578,0
3.58,-0.005
3.582,-0.07
3.584,-0.175
3.586,-0.265
3.588,-0.28
3.59,-0.265
3.592,-0.205
3.594,-0.085
3.596,0
3.598,0
3.6,-0.005
3.602,-0.075
3.604,-0.185
3.606,-0.255
3.608,-0.28
3.61,-0.265
3.612,-0.2
3.614,-0.075
3.616,-0.005
3.618,0.015
3.62,-0.005
3.622,-0.075
3.624,-0.175
3.626,-0.255
3.628,-0.27
3.63,-0.245
3.632,-0.175
3.634,-0.05
3.636,0.01
3.638,0.03
3.64,0.005
3.642,-0.065
3.644,-0.175
3.646,-0.235
3.648,-0.245
3.65,-0.225
3.652,-0.165
3.654,-0.035
3.656,0.02
3.658,0.04
3.66,0.01
3.662,-0.055
3.664,-0.185
3.666,-0.24
3.668,-0.25
3.67,-0.215
3.672,-0.16
3.674,-0.03
3.676,0.025
3.678,0.04
3.68,0.005
3.682,-0.07
3.684,-0.195
3.686,-0.24
3.688,-0.25
3.69,-0.22
3.692,-0.15
3.694,-0.02
3.696,0.02
3.698,0.04
3.7,-0.005
3.702,-0.075
3.704,-0.195
3.706,-0.245
3.708,-0.255
3.71,-0.215
3.712,-0.15
3.714,-0.01
3.716,0.035
3.718,0.04
3.72,-0.005
3.722,-0.08
3.724,-0.205
3.726,-0.245
3.728,-0.265
3.73,-0.21
3.732,-0.135
3.734,0.005
3.736,0.045
3.738,0.05
3.74,0
3.742,-0.08
3.744,-0.21
3.746,-0.24
3.748,-0.25
3.75,-0.205
3.752,-0.135
3.754,-0.005
3.756,0.03
3.758,0.04
3.76,-0.015
3.762,-0.09
3.764,-0.215
3.766,-0.24
3.768,-0.25
3.77,-0.195
3.772,-0.115
3.774,0.01
3.776,0.045
3.778,0.05
3.78,-0.005
3.782,-0.1
3.784,-0.21
3.786,-0.24
3.788,-0.23
3.79,-0.175
3.792,-0.09
3.794,0.02
3.796,0.04
3.798,0.055
3.8,-0.015
3.802,-0.115
3.804,-0.21
3.806,-0.235
3.808,-0.23
3.81,-0.17
3.812,-0.07
3.814,0.035
3.816,0.05
3.818,0.05
3.82,-0.005
3.822,-0.09
3.824,-0.195
3.826,-0.22
3.828,-0.205
3.83,-0.13
3.832,-0.02
3.834,0.085
3.836,0.11
3.838,0.105
3.84,0.045
3.842,-0.065
3.844,-0.165
3.846,-0.21
3.848,-0.2
3.85,-0.145
3.852,-0.035
3.854,0.04
3.856,0.05
3.858,0.04
3.86,-0.015
3.862,-0.145
3.864,-0.225
3.866,-0.245
3.868,-0.225
3.87,-0.155
3.872,-0.05
3.874,0.035
3.876,0.05
3.878,0.045
3.88,-0.02
3.882,-0.135
3.884,-0.215
3.886,-0.235
3.888,-0.215
3.89,-0.145
3.892,-0.02
3.894,0.04
3.896,0.06
3.898,0.04
3.9,-0.025
3.902,-0.155
3.904,-0.225
3.906,-0.24
3.908,-0.21
3.91,-0.15
3.912,-0.015
3.914,0.035
3.916,0.06
3.918,0.035
3.92,-0.035
3.922,-0.155
3.924,-0.23
3.926,-0.24
3.928,-0.22
3.93,-0.155
3.932,-0.035
3.934,0.035
3.936,0.1
3.938,0.13
3.94,0.15
3.942,0.115
3.944,0.17
3.946,0.25
3.948,0.37
3.95,0.545
3.952,0.77
3.954,0.88
3.956,0.825
3.958,0.655
3.96,0.475
3.962,0.245
3.964,0.09
3.966,-0.05
3.968,-0.155
3.97,-0.26
3.972,-0.25
3.974,-0.255
3.976,-0.23
3.978,-0.265
3.98,-0.32
3.982,-0.45
3.984,-0.465
3.986,-0.445
3.988,-0.38
3.99,-0.285
3.992,-0.1
3.994,-0.045
3.996,-0.015
3.998,-0.025
4,-0.08
4.002,-0.2
4.004,-0.225
4.006,-0.225
4.008,-0.17
4.01,-0.095
4.012,0.045
4.014,0.07
4.016,0.085
4.018,0.055
4.02,-0.03
4.022,-0.155
4.024,-0.18
4.026,-0.19
4.028,-0.14
4.03,-0.045
4.032,0.075
4.034,0.11
4.036,0.12
4.038,0.075
4.04,-0.015
4.042,-0.13
4.044,-0.165
4.046,-0.17
4.048,-0.11
4.05,-0.025
4.052,0.1
4.054,0.13
4.056,0.135
4.058,0.09
4.06,0.01
4.062,-0.105
4.064,-0.145
4.066,-0.135
4.068,-0.08
4.07,0.005
4.072,0.125
4.074,0.155
4.076,0.15
4.078,0.1
4.08,0.01
4.082,-0.095
4.084,-0.12
4.086,-0.12
4.088,-0.055
4.09,0.03
4.092,0.155
4.094,0.18
4.096,0.19
4.098,0.135
4.1,0.03
4.102,-0.065
4.104,-0.09
4.106,-0.07
4.108,-0.01
4.11,0.095
4.112,0.215
4.114,0.225
4.116,0.225
4.118,0.165
4.12,0.06
4.122,-0.015
4.124,-0.015
4.126,0
4.128,0.055
4.13,0.18
4.132,0.27
4.134,0.305
4.136,0.305
4.138,0.245
4.14,0.14
4.142,0.06
4.144,0.05
4.146,0.085
4.148,0.145
4.15,0.27
4.152,0.35
4.154,0.385
4.156,0.365
4.158,0.31
4.16,0.2
4.162,0.125
4.164,0.105
4.166,0.135
4.168,0.205
4.17,0.31
4.172,0.385
4.174,0.405
4.176,0.375
4.178,0.3
4.18,0.18
4.182,0.1
4.184,0.065
4.186,0.07
4.188,0.125
4.19,0.24
4.192,0.275
4.194,0.27
4.196,0.225
4.198,0.15
4.2,0
4.202,-0.075
4.204,-0.1
4.206,-0.085
4.208,-0.04
4.21,0.08
4.212,0.12
4.214,0.13
4.216,0.09
4.218,0.025
4.22,-0.115
4.222,-0.17
4.224,-0.195
4.226,-0.155
4.228,-0.095
4.23,0.015
4.232,0.075
4.234,0.095
4.236,0.055
4.238,-0.02
4.24,-0.155
4.242,-0.205
4.244,-0.22
4.246,-0.185
4.248,-0.12
4.25,0.015
4.252,0.05
4.254,0.065
4.256,0.04
4.258,-0.035
4.26,-0.16
4.262,-0.215
4.264,-0.23
4.266,-0.195
4.268,-0.115
4.27,0.01
4.272,0.065
4.274,0.065
4.276,0.035
4.278,-0.04
4.28,-0.175
4.282,-0.225
4.284,-0.225
4.286,-0.18
4.288,-0.095
4.29,0.03
4.292,0.06
4.294,0.08
4.296,0.03
4.298,-0.06
4.3,-0.185
4.302,-0.215
4.304,-0.22
4.306,-0.185
4.308,-0.095
4.31,0.03
4.312,0.06
4.314,0.07
4.316,0.02
4.318,-0.06
4.32,-0.18
4.322,-0.22
4.324,-0.22
4.326,-0.16
4.328,-0.075
4.33,0.045
4.332,0.08
4.334,0.085
4.336,0.035
4.338,-0.055
4.34,-0.185
4.342,-0.2
4.344,-0.21
4.346,-0.15
4.348,-0.06
4.35,0.065
4.352,0.085
4.354,0.08
4.356,0.02
4.358,-0.065
4.36,-0.17
4.362,-0.195
4.364,-0.2
4.366,-0.15
4.368,-0.04
4.37,0.075
4.372,0.085
4.374,0.085
4.376,0.03
4.378,-0.07
4.38,-0.18
4.382,-0.19
4.384,-0.2
4.386,-0.14
4.388,-0.025
4.39,0.065
4.392,0.095
4.394,0.08
4.396,0.03
4.398,-0.085
4.4,-0.185
4.402,-0.195
4.404,-0.2
4.406,-0.135
4.408,-0.03
4.41,0.065
4.412,0.09
4.414,0.07
4.416,0.015
4.418,-0.095
4.42,-0.18
4.422,-0.205
4.424,-0.195
4.426,-0.14
4.428,-0.005
4.43,0.065
4.432,0.075
4.434,0.06
4.436,-0.005
4.438,-0.12
4.44,-0.195
4.442,-0.21
4.444,-0.2
4.446,-0.13
4.448,-0.015
4.45,0.06
4.452,0.075
4.454,0.05
4.456,-0.005
4.458,-0.135
4.46,-0.19
4.462,-0.205
4.464,-0.18
4.466,-0.125
4.468,0
4.47,0.065
4.472,0.075
4.474,0.045
4.476,-0.015
4.478,-0.145
4.48,-0.19
4.482,-0.205
4.484,-0.175
4.486,-0.105
4.488,0.015
4.49,0.08
4.492,0.095
4.494,0.065
4.496,0
4.498,-0.135
4.5,-0.195
4.502,-0.225
4.504,-0.165
4.506,-0.105
4.508,0.03
4.51,0.075
4.512,0.1
4.514,0.065
4.516,0.005
4.518,-0.145
4.52,-0.19
4.522,-0.21
4.524,-0.155
4.526,-0.08
4.528,0.06
4.53,0.115
4.532,0.15
4.534,0.105
4.536,0.03
4.538,-0.095
4.54,-0.16
4.542,-0.18
4.544,-0.155
4.546,-0.085
4.548,0.045
4.55,0.08
4.552,0.08
4.554,0.025
4.556,-0.035
4.558,-0.18
4.56,-0.22
4.562,-0.235
4.564,-0.175
4.566,-0.1
4.568,0.025
4.57,0.065
4.572,0.07
4.574,0.025
4.576,-0.045
4.578,-0.18
4.58,-0.23
4.582,-0.23
4.584,-0.18
4.586,-0.095
4.588,0.04
4.59,0.06
4.592,0.075
4.594,0.015
4.596,-0.07
4.598,-0.2
4.6,0.095
4.602,0.07
4.604,0.13
4.606,0.225
4.608,0.365
4.61,0.555
4.612,0.755
4.614,0.82
4.616,0.765
4.618,0.6
4.62,0.385
4.622,0.185
4.624,0.07
4.626,-0.055
4.628,-0.15
4.63,-0.18
4.632,-0.205
4.634,-0.22
4.636,-0.225
4.638,-0.295
4.64,-0.395
4.642,-0.48
4.644,-0.475
4.646,-0.445
4.648,-0.35
4.65,-0.205
4.652,-0.09
4.654,-0.035
4.656,-0.025
4.658,-0.075
4.66,-0.165
4.662,-0.23
4.664,-0.235
4.666,-0.21
4.668,-0.14
4.67,-0.015
4.672,0.07
4.674,0.08
4.676,0.065
4.678,0.01
4.68,-0.115
4.682,-0.18
4.684,-0.195
4.686,-0.165
4.688,-0.095
4.69,0.02
4.692,0.085
4.694,0.11
4.696,0.085
4.698,0.015
4.7,-0.1
4.702,-0.16
4.704,-0.18
4.706,-0.16
4.708,-0.095
4.71,0.04
4.712,0.11
4.714,0.125
4.716,0.09
4.718,0.03
4.72,-0.095
4.722,-0.16
4.724,-0.17
4.726,-0.13
4.728,-0.07
4.73,0.07
4.732,0.12
4.734,0.14
4.736,0.12
4.738,0.04
4.74,-0.08
4.742,-0.14
4.744,-0.15
4.746,-0.12
4.748,-0.05
4.75,0.08
4.752,0.145
4.754,0.17
4.756,0.14
4.758,0.07
4.76,-0.06
4.762,-0.105
4.764,-0.12
4.766,-0.07
4.768,0.005
4.77,0.15
4.772,0.2
4.774,0.21
4.776,0.175
4.778,0.11
4.78,-0.025
4.782,-0.055
4.784,-0.06
4.786,-0.025
4.788,0.07
4.79,0.215
4.792,0.265
4.794,0.28
4.796,0.25
4.798,0.175
4.8,0.045
4.802,0.015
4.804,0.025
4.806,0.08
4.808,0.16
4.81,0.295
4.812,0.34
4.814,0.35
4.816,0.305
4.818,0.23
4.82,0.1
4.822,0.07
4.824,0.065
4.826,0.115
4.828,0.2
4.83,0.33
4.832,0.36
4.834,0.365
4.836,0.305
4.838,0.225
4.84,0.095
4.842,0.045
4.844,0.02
4.846,0.07
4.848,0.14
4.85,0.245
4.852,0.25
4.854,0.23
4.856,0.155
4.858,0.05
4.86,-0.085
4.862,-0.125
4.864,-0.14
4.866,-0.11
4.868,-0.03
4.87,0.08
4.872,0.09
4.874,0.09
4.876,0.02
4.878,-0.08
4.88,-0.215
4.882,-0.23
4.884,-0.245
4.886,-0.18
4.888,-0.085
4.89,0.02
4.892,0.03
4.894,0.02
4.896,-0.04
4.898,-0.14
4.9,-0.25
4.902,-0.275
4.904,-0.26
4.906,-0.195
4.908,-0.095
4.91,-0.01
4.912,0.015
4.914,0.005
4.916,-0.065
4.918,-0.17
4.92,-0.265
4.922,-0.29
4.924,-0.28
4.926,-0.21
4.928,-0.1
4.93,-0.015
4.932,0.005
4.934,-0.01
4.936,-0.08
4.938,-0.185
4.94,-0.27
4.942,-0.295
4.944,-0.28
4.946,-0.195
4.948,-0.08
4.95,-0.015
4.952,0.01
4.954,0
4.956,-0.07
4.958,-0.195
4.96,-0.275
4.962,-0.285
4.964,-0.26
4.966,-0.19
4.968,-0.07
4.97,0
4.972,0.025
4.974,-0.01
4.976,-0.07
4.978,-0.215
4.98,-0.275
4.982,-0.28
4.984,-0.255
4.986,-0.185
4.988,-0.06
4.99,0.005
4.992,0.02
4.994,-0.005
4.996,-0.065
4.998,-0.21
5,-0.27
5.002,-0.27
5.004,-0.245
5.006,-0.18
5.008,-0.045
5.01,0.015
5.012,0.025
5.014,-0.01
5.016,-0.075
5.018,-0.21
5.02,-0.265
5.022,-0.285
5.024,-0.235
5.026,-0.17
5.028,-0.03
5.03,0.02
5.032,0.025
5.034,-0.005
5.036,-0.08
5.038,-0.21
5.04,-0.26
5.042,-0.285
5.044,-0.24
5.046,-0.17
5.048,-0.025
5.05,0.015
5.052,0.035
5.054,-0.015
5.056,-0.085
5.058,-0.22
5.06,-0.265
5.062,-0.27
5.064,-0.245
5.066,-0.165
5.068,-0.03
5.07,0.005
5.072,0.015
5.074,-0.02
5.076,-0.1
5.078,-0.24
5.08,-0.275
5.082,-0.29
5.084,-0.245
5.086,-0.165
5.088,-0.025
5.09,0.02
5.092,0.035
5.094,-0.03
5.096,-0.115
5.098,-0.25
5.1,-0.28
5.102,-0.295
5.104,-0.24
5.106,-0.145
5.108,-0.025
5.11,0
5.112,0
5.114,-0.045
5.116,-0.13
5.118,-0.26
5.12,-0.29
5.122,-0.285
5.124,-0.225
5.126,-0.14
5.128,-0.01
5.13,0
5.132,-0.005
5.134,-0.05
5.136,-0.145
5.138,-0.255
5.14,-0.285
5.142,-0.29
5.144,-0.225
5.146,-0.125
5.148,-0.015
5.15,0.01
5.152,0.01
5.154,-0.065
5.156,-0.16
5.158,-0.27
5.16,-0.285
5.162,-0.27
5.164,-0.22
5.166,-0.115
5.168,-0.01
5.17,0.005
5.172,0.01
5.174,-0.055
5.176,-0.155
5.178,-0.255
5.18,-0.275
5.182,-0.25
5.184,-0.2
5.186,-0.07
5.188,0.035
5.19,0.06
5.192,0.05
5.194,-0.01
5.196,-0.14
5.198,-0.23
5.2,-0.26
5.202,-0.265
5.204,-0.205
5.206,-0.085
5.208,-0.015
5.21,0.005
5.212,-0.01
5.214,-0.075
5.216,-0.19
5.218,-0.295
5.22,-0.325
5.222,-0.29
5.224,-0.22
5.226,-0.105
5.228,-0.035
5.23,-0.01
5.232,-0.025
5.234,-0.085
5.236,-0.205
5.238,-0.29
5.24,-0.31
5.242,-0.275
5.244,-0.21
5.246,-0.085
5.248,-0.02
5.25,0.005
5.252,-0.03
5.254,-0.1
5.256,-0.215
5.258,-0.29
5.26,-0.31
5.262,-0.265
5.264,-0.21
5.266,-0.085
5.268,-0.03
5.27,-0.01
5.272,-0.03
5.274,-0.1
5.276,-0.235
5.278,-0.285
5.28,-0.305
5.282,-0.28
5.284,-0.2
5.286,-0.07
5.288,-0.005
5.29,0.06
5.292,0.085
5.294,0.09
5.296,0.05
5.298,0.1
5.3,0.175
5.302,0.3
5.304,0.485
5.306,0.695
5.308,0.775
5.31,0.695
5.312,0.53
5.314,0.35
5.316,0.125
5.318,-0.03
5.32,-0.18
5.322,-0.27
5.324,-0.355
5.326,-0.315
5.328,-0.305
5.33,-0.29
5.332,-0.33
5.334,-0.4
5.336,-0.52
5.338,-0.535
5.34,-0.52
5.342,-0.445
5.344,-0.35
5.346,-0.17
5.348,-0.1
5.35,-0.07
5.352,-0.105
5.354,-0.16
5.356,-0.285
5.358,-0.31
5.36,-0.305
5.362,-0.24
5.364,-0.16
5.366,-0.02
5.368,0.01
5.37,0.015
5.372,-0.035
5.374,-0.115
5.376,-0.24
5.378,-0.275
5.38,-0.28
5.382,-0.22
5.384,-0.125
5.386,0.01
5.388,0.035
5.39,0.04
5.392,-0.015
5.394,-0.11
5.396,-0.22
5.398,-0.25
5.4,-0.255
5.402,-0.19
5.404,-0.09
5.406,0.02
5.408,0.05
5.41,0.05
5.412,-0.005
5.414,-0.1
5.416,-0.22
5.418,-0.245
5.42,-0.235
5.422,-0.16
5.424,-0.07
5.426,0.03
5.428,0.07
5.43,0.06
5.432,0
5.434,-0.095
5.436,-0.195
5.438,-0.225
5.44,-0.205
5.442,-0.145
5.444,-0.035
5.446,0.075
5.448,0.1
5.45,0.085
5.452,0.035
5.454,-0.075
5.456,-0.175
5.458,-0.18
5.46,-0.17
5.462,-0.105
5.464,0.025
5.466,0.12
5.468,0.15
5.47,0.145
5.472,0.085
5.474,-0.035
5.476,-0.125
5.478,-0.135
5.48,-0.11
5.482,-0.03
5.484,0.095
5.486,0.19
5.488,0.22
5.49,0.215
5.492,0.155
5.494,0.045
5.496,-0.03
5.498,-0.045
5.5,-0.025
5.502,0.055
5.504,0.19
5.506,0.27
5.508,0.29
5.51,0.28
5.512,0.22
5.514,0.105
5.516,0.035
5.518,0.02
5.52,0.045
5.522,0.115
5.524,0.245
5.526,0.3
5.528,0.32
5.53,0.295
5.532,0.215
5.534,0.075
5.536,0.005
5.538,-0.025
5.54,-0.01
5.542,0.045
5.544,0.16
5.546,0.19
5.548,0.195
5.55,0.15
5.552,0.07
5.554,-0.09
5.556,-0.16
5.558,-0.19
5.56,-0.165
5.562,-0.105
5.564,0.005
5.566,0.05
5.568,0.06
5.57,0.01
5.572,-0.055
5.574,-0.205
5.576,-0.265
5.578,-0.28
5.58,-0.24
5.582,-0.175
5.584,-0.04
5.586,0.005
5.588,0.01
5.59,-0.03
5.592,-0.11
5.594,-0.25
5.596,-0.305
5.598,-0.31
5.6,-0.26
5.602,-0.19
5.604,-0.06
5.606,-0.015
5.608,0
5.61,-0.055
5.612,-0.135
5.614,-0.265
5.616,-0.31
5.618,-0.31
5.62,-0.26
5.622,-0.19
5.624,-0.06
5.626,-0.02
5.628,-0.015
5.63,-0.06
5.632,-0.135
5.634,-0.27
5.636,-0.31
5.638,-0.305
5.64,-0.265
5.642,-0.19
5.644,-0.05
5.646,-0.015
5.648,-0.01
5.65,-0.06
5.652,-0.145
5.654,-0.27
5.656,-0.305
5.658,-0.3
5.66,-0.245
5.662,-0.16
5.664,-0.035
5.666,0
5.668,0.005
5.67,-0.05
5.672,-0.14
5.674,-0.26
5.676,-0.29
5.678,-0.28
5.68,-0.235
5.682,-0.14
5.684,-0.015
5.686,0.01
5.688,0.015
5.69,-0.05
5.692,-0.145
5.694,-0.26
5.696,-0.285
5.698,-0.27
5.7,-0.21
5.702,-0.105
5.704,-0.005
5.706,0.015
5.708,0.015
5.71,-0.05
5.712,-0.15
5.714,-0.255
5.716,-0.28
5.718,-0.275
5.72,-0.205
5.722,-0.1
5.724,0
5.726,0.025
5.728,0.015
5.73,-0.05
5.732,-0.15
5.734,-0.255
5.736,-0.275
5.738,-0.265
5.74,-0.2
5.742,-0.08
5.744,0.005
5.746,0.03
5.748,0.015
5.75,-0.05
5.752,-0.17
5.754,-0.255
5.756,-0.275
5.758,-0.255
5.76,-0.185
5.762,-0.07
5.764,-0.005
5.766,0.03
5.768,0.015
5.77,-0.05
5.772,-0.165
5.774,-0.255
5.776,-0.285
5.778,-0.26
5.78,-0.175
5.782,-0.055
5.784,0.01
5.786,0.03
5.788,0.015
5.79,-0.06
5.792,-0.18
5.794,-0.25
5.796,-0.275
5.798,-0.245
5.8,-0.175
5.802,-0.05
5.804,0.01
5.806,0.035
5.808,0.015
5.81,-0.06
5.812,-0.185
5.814,-0.25
5.816,-0.27
5.818,-0.245
5.82,-0.165
5.822,-0.04
5.824,0.01
5.826,0.02
5.828,0
5.83,-0.07
5.832,-0.195
5.834,-0.255
5.836,-0.28
5.838,-0.235
5.84,-0.16
5.842,-0.025
5.844,0.025
5.846,0.035
5.848,0
5.85,-0.07
5.852,-0.195
5.854,-0.25
5.856,-0.26
5.858,-0.23
5.86,-0.155
5.862,-0.01
5.864,0.03
5.866,0.05
5.868,0
5.87,-0.065
5.872,-0.2
5.874,-0.245
5.876,-0.25
5.878,-0.205
5.88,-0.13
5.882,0.01
5.884,0.05
5.886,0.085
5.888,0.045
5.89,-0.025
5.892,-0.16
5.894,-0.19
5.896,-0.2
5.898,-0.15
5.9,-0.08
5.902,0.035
5.904,0.06
5.906,0.065
5.908,0.005
5.91,-0.065
5.912,-0.195
5.914,-0.24
5.916,-0.255
5.918,-0.215
5.92,-0.13
5.922,-0.005
5.924,0.03
5.926,0.035
5.928,-0.02
5.93,-0.1
5.932,-0.225
5.934,-0.25
5.936,-0.25
5.938,-0.195
5.94,-0.115
5.942,0.01
5.944,0.04
5.946,0.045
5.948,-0.025
5.95,-0.105
5.952,-0.22
5.954,-0.245
5.956,-0.25
5.958,-0.19
5.96,-0.095
5.962,0.015
5.964,0.04
5.966,0.035
5.968,-0.02
5.97,-0.105
5.972,-0.22
5.974,-0.255
5.976,-0.245
5.978,-0.195
5.98,-0.085
5.982,0.02
5.984,0.04
5.986,0.025
5.988,-0.03
5.99,-0.12
5.992,-0.19
5.994,-0.145
5.996,-0.075
5.998,0.085
6,0.295
6.002,0.5
6.004,0.61
6.006,0.685
6.008,0.735
6.01,0.695
6.012,0.565
6.014,0.42
6.016,0.3
6.018,0.25
6.02,0.265
6.022,0.23
6.024,0.11
6.026,-0.06
6.028,-0.265
6.03,-0.44
6.032,-0.53
6.034,-0.54
6.036,-0.515
6.038,-0.445
6.04,-0.295
6.042,-0.19
6.044,-0.15
6.046,-0.145
6.048,-0.17
6.05,-0.255
6.052,-0.305
6.054,-0.3
6.056,-0.255
6.058,-0.175
6.06,-0.04
6.062,0.045
6.064,0.07
6.066,0.045
6.068,-0.015
6.07,-0.14
6.072,-0.2
6.074,-0.22
6.076,-0.185
6.078,-0.11
6.08,0.025
6.082,0.085
6.084,0.095
6.086,0.07
6.088,0.005
6.09,-0.12
6.092,-0.185
6.094,-0.19
6.096,-0.16
6.098,-0.095
6.1,0.04
6.102,0.105
6.104,0.12
6.106,0.08
6.108,0.01
6.11,-0.12
6.112,-0.17
6.114,-0.18
6.116,-0.135
6.118,-0.065
6.12,0.065
6.122,0.115
6.124,0.12
6.126,0.085
6.128,0.025
6.13,-0.115
6.132,-0.165
6.134,-0.175
6.136,-0.135
6.138,-0.045
6.14,0.09
6.142,0.13
6.144,0.15
6.146,0.11
6.148,0.035
6.15,-0.095
6.152,-0.13
6.154,-0.14
6.156,-0.09
6.158,-0.01
6.16,0.13
6.162,0.175
6.164,0.19
6.166,0.145
6.168,0.07
6.17,-0.055
6.172,-0.085
6.174,-0.09
6.176,-0.035
6.178,0.06
6.18,0.19
6.182,0.225
6.184,0.245
6.186,0.21
6.188,0.14
6.19,0.02
6.192,-0.005
6.194,-0.005
6.196,0.055
6.198,0.145
6.2,0.285
6.202,0.315
6.204,0.33
6.206,0.28
6.208,0.2
6.21,0.085
6.212,0.065
6.214,0.055
6.216,0.115
6.218,0.21
6.22,0.335
6.222,0.38
6.224,0.375
6.226,0.32
6.228,0.23
6.23,0.105
6.232,0.07
6.234,0.065
6.236,0.11
6.238,0.21
6.24,0.31
6.242,0.32
6.244,0.305
6.246,0.235
6.248,0.115
6.25,-0.02
6.252,-0.055
6.254,-0.06
6.256,-0.02
6.258,0.07
6.26,0.145
6.262,0.16
6.264,0.135
6.266,0.055
6.268,-0.055
6.27,-0.16
6.272,-0.19
6.274,-0.185
6.276,-0.13
6.278,-0.04
6.28,0.05
6.282,0.06
6.284,0.05
6.286,-0.015
6.288,-0.12
6.29,-0.225
6.292,-0.245
6.294,-0.225
6.296,-0.16
6.298,-0.05
6.3,0.03
6.302,0.05
6.304,0.03
6.306,-0.03
6.308,-0.145
6.31,-0.23
6.312,-0.255
6.314,-0.235
6.316,-0.17
6.318,-0.045
6.32,0.015
6.322,0.04
6.324,0.025
6.326,-0.045
6.328,-0.17
6.33,-0.235
6.332,-0.25
6.334,-0.235
6.336,-0.165
6.338,-0.045
6.34,0.025
6.342,0.045
6.344,0.015
6.346,-0.045
6.348,-0.17
6.35,-0.24
6.352,-0.255
6.354,-0.23
6.356,-0.155
6.358,-0.035
6.36,0.035
6.362,0.06
6.364,0.02
6.366,-0.04
6.368,-0.175
6.37,-0.235
6.372,-0.245
6.374,-0.225
6.376,-0.15
6.378,-0.015
6.38,0.035
6.382,0.06
6.384,0.025
6.386,-0.045
6.388,-0.185
6.39,-0.23
6.392,-0.245
6.394,-0.2
6.396,-0.14
6.398,-0.005
6.4,0.05
6.402,0.065
6.404,0.025
6.406,-0.045
6.408,-0.185
6.41,-0.22
6.412,-0.225
6.414,-0.19
6.416,-0.105
6.418,0.015
6.42,0.055
6.422,0.07
6.424,0.025
6.426,-0.045
6.428,-0.185
6.43,-0.22
6.432,-0.23
6.434,-0.18
6.436,-0.105
6.438,0.03
6.44,0.065
6.442,0.065
6.444,0.03
6.446,-0.05
6.448,-0.185
6.45,-0.22
6.452,-0.235
6.454,-0.18
6.456,-0.09
6.458,0.035
6.46,0.07
6.462,0.07
6.464,0.015
6.466,-0.07
6.468,-0.195
6.47,-0.23
6.472,-0.235
6.474,-0.175
6.476,-0.1
6.478,0.025
6.48,0.055
6.482,0.065
6.484,0.005
6.486,-0.08
6.488,-0.205
6.49,-0.225
6.492,-0.235
6.494,-0.17
6.496,-0.085
6.498,0.035
6.5,0.065
6.502,0.065
6.504,0
6.506,-0.085
6.508,-0.205
6.51,-0.225
6.512,-0.23
6.514,-0.165
6.516,-0.08
6.518,0.035
6.52,0.05
6.522,0.055
6.524,-0.005
6.526,-0.105
6.528,-0.22
6.53,-0.235
6.532,-0.225
6.534,-0.17
6.536,-0.06
6.538,0.035
6.54,0.05
6.542,0.06
6.544,-0.015
6.546,-0.11
6.548,-0.215
6.55,-0.25
6.552,-0.225
6.554,-0.145
6.556,-0.04
6.558,0.055
6.56,0.07
6.562,0.055
6.564,-0.01
6.566,-0.12
6.568,-0.215
6.57,-0.23
6.572,-0.21
6.574,-0.145
6.576,-0.03
6.578,0.055
6.58,0.075
6.582,0.075
6.584,-0.015
6.586,-0.125
6.588,-0.2
6.59,-0.22
6.592,-0.19
6.594,-0.135
6.596,0
6.598,0.075
6.6,0.105
6.602,0.1
6.604,0.045
6.606,-0.08
6.608,-0.155
6.61,-0.175
6.612,-0.155
6.614,-0.1
6.616,0.015
6.618,0.07
6.62,0.08
6.622,0.06
6.624,-0.02
6.626,-0.145
6.628,-0.225
6.63,-0.24
6.632,-0.215
6.634,-0.15
6.636,-0.02
6.638,0.045
6.64,0.05
6.642,0.02
6.644,-0.04
6.646,-0.165
6.648,-0.23
6.65,-0.24
6.652,-0.2
6.654,-0.13
6.656,-0.005
6.658,0.045
6.66,0.065
6.662,0.02
6.664,-0.035
6.666,-0.175
6.668,-0.225
6.67,-0.25
6.672,-0.21
6.674,-0.135
6.676,0
6.678,0.055
6.68,0.06
6.682,0.015
6.684,-0.045
6.686,-0.17
6.688,-0.23
6.69,-0.235
6.692,-0.195
6.694,-0.12
6.696,0.02
6.698,0.06
6.7,0.06
6.702,0.025
6.704,-0.035
6.706,-0.115
6.708,-0.08
6.71,-0.025
6.712,0.14
6.714,0.315
6.716,0.53
6.718,0.66
6.72,0.78
6.722,0.825
6.724,0.75
6.726,0.52
6.728,0.35
6.73,0.23
6.732,0.175
6.734,0.145
6.736,0.16
6.738,0.035
6.74,-0.125
6.742,-0.275
6.744,-0.37
6.746,-0.495
6.748,-0.525
6.75,-0.515
6.752,-0.435
6.754,-0.33
6.756,-0.175
6.758,-0.12
6.76,-0.08
6.762,-0.1
6.764,-0.16
6.766,-0.26
6.768,-0.275
6.77,-0.26
6.772,-0.19
6.774,-0.08
6.776,0.05
6.778,0.075
6.78,0.08
6.782,0.015
6.784,-0.08
6.786,-0.18
6.788,-0.21
6.79,-0.21
6.792,-0.145
6.794,-0.04
6.796,0.07
6.798,0.095
6.8,0.095
6.802,0.05
6.804,-0.06
6.806,-0.17
6.808,-0.19
6.81,-0.175
6.812,-0.115
6.814,-0.015
6.816,0.09
6.818,0.115
6.82,0.115
6.822,0.05
6.824,-0.05
6.826,-0.15
6.828,-0.18
6.83,-0.165
6.832,-0.105
6.834,0.01
6.836,0.095
6.838,0.125
6.84,0.12
6.842,0.05
6.844,-0.055
6.846,-0.14
6.848,-0.155
6.85,-0.145
6.852,-0.085
6.854,0.04
6.856,0.12
6.858,0.15
6.86,0.135
6.862,0.065
6.864,-0.04
6.866,-0.115
6.868,-0.12
6.87,-0.1
6.872,-0.035
6.874,0.085
6.876,0.17
6.878,0.18
6.88,0.165
6.882,0.115
6.884,-0.005
6.886,-0.065
6.888,-0.085
6.89,-0.06
6.892,0.025
6.894,0.145
6.896,0.225
6.898,0.245
6.9,0.22
6.902,0.175
6.904,0.06
6.906,-0.005
6.908,-0.01
6.91,0.02
6.912,0.11
6.914,0.255
6.916,0.315
6.918,0.33
6.92,0.305
6.922,0.25
6.924,0.115
6.926,0.065
6.928,0.05
6.93,0.085
6.932,0.17
6.934,0.31
6.936,0.35
6.938,0.365
6.94,0.325
6.942,0.26
6.944,0.125
6.946,0.06
6.948,0.05
6.95,0.08
6.952,0.13
6.954,0.255
6.956,0.29
6.958,0.29
6.96,0.235
6.962,0.14
6.964,-0.005
6.966,-0.07
6.968,-0.1
6.97,-0.065
6.972,-0.01
6.974,0.12
6.976,0.135
6.978,0.13
6.98,0.07
6.982,-0.005
6.984,-0.155
6.986,-0.215
6.988,-0.23
6.99,-0.195
6.992,-0.11
6.994,0.015
6.996,0.045
6.998,0.05
7,-0.01
7.002,-0.09
7.004,-0.235
7.006,-0.275
7.008,-0.27
7.01,-0.225
7.012,-0.145
7.014,-0.01
7.016,0.02
7.018,0.03
7.02,-0.03
7.022,-0.115
7.024,-0.24
7.026,-0.275
7.028,-0.285
7.03,-0.225
7.032,-0.135
7.034,-0.02
7.036,0.01
7.038,0.01
7.04,-0.04
7.042,-0.12
7.044,-0.25
7.046,-0.28
7.048,-0.285
7.05,-0.23
7.052,-0.13
7.054,-0.015
7.056,0.01
7.058,0
7.06,-0.05
7.062,-0.145
7.064,-0.25
7.066,-0.275
7.068,-0.28
7.07,-0.22
7.072,-0.115
7.074,0
7.076,0.015
7.078,0.01
7.08,-0.07
7.082,-0.15
7.084,-0.25
7.086,-0.27
7.088,-0.27
7.09,-0.205
7.092,-0.11
7.094,-0.005
7.096,0.015
7.098,0.015
7.1,-0.055
7.102,-0.165
7.104,-0.25
7.106,-0.275
7.108,-0.255
7.11,-0.195
7.112,-0.1
7.114,0
7.116,0.03
7.118,0.015
7.12,-0.05
7.122,-0.165
7.124,-0.25
7.126,-0.28
7.128,-0.255
7.13,-0.19
7.132,-0.065
7.134,0.005
7.136,0.02
7.138,0.015
7.14,-0.06
7.142,-0.17
7.144,-0.25
7.146,-0.265
7.148,-0.255
7.15,-0.185
7.152,-0.07
7.154,0
7.156,0.025
7.158,0.005
7.16,-0.07
7.162,-0.2
7.164,-0.275
7.166,-0.29
7.168,-0.255
7.17,-0.195
7.172,-0.07
7.174,0
7.176,0.015
7.178,-0.015
7.18,-0.085
7.182,-0.205
7.184,-0.27
7.186,-0.28
7.188,-0.255
7.19,-0.185
7.192,-0.055
7.194,0
7.196,0.015
7.198,-0.03
7.2,-0.095
7.202,-0.225
7.204,-0.28
7.206,-0.29
7.208,-0.245
7.21,-0.185
7.212,-0.06
7.214,-0.005
7.216,0.015
7.218,-0.03
7.22,-0.1
7.222,-0.235
7.224,-0.29
7.226,-0.295
7.228,-0.255
7.23,-0.185
7.232,-0.06
7.234,-0.015
7.236,0.01
7.238,-0.045
7.24,-0.11
7.242,-0.245
7.244,-0.29
7.246,-0.295
7.248,-0.25
7.25,-0.17
7.252,-0.05
7.254,-0.01
7.256,0.015
7.258,-0.035
7.26,-0.125
7.262,-0.26
7.264,-0.29
7.266,-0.295
7.268,-0.24
7.27,-0.165
7.272,-0.035
7.274,0.005
7.276,0.005
7.278,-0.045
7.28,-0.13
7.282,-0.25
7.284,-0.29
7.286,-0.3
7.288,-0.245
7.29,-0.15
7.292,-0.025
7.294,0.015
7.296,0.01
7.298,-0.045
7.3,-0.12
7.302,-0.25
7.304,-0.28
7.306,-0.295
7.308,-0.225
7.31,-0.14
7.312,0.005
7.314,0.04
7.316,0.05
7.318,-0.005
7.32,-0.085
7.322,-0.19
7.324,-0.23
7.326,-0.245
7.328,-0.195
7.33,-0.105
7.332,-0.015
7.334,0.01
7.336,0.01
7.338,-0.05
7.34,-0.15
7.342,-0.27
7.344,-0.31
7.346,-0.31
7.348,-0.24
7.35,-0.15
7.352,-0.06
7.354,-0.025
7.356,-0.025
7.358,-0.07
7.36,-0.18
7.362,-0.285
7.364,-0.31
7.366,-0.305
7.368,-0.24
7.37,-0.12
7.372,-0.04
7.374,-0.02
7.376,-0.02
7.378,-0.08
7.38,-0.19
7.382,-0.29
7.384,-0.31
7.386,-0.3
7.388,-0.235
7.39,-0.125
7.392,-0.045
7.394,-0.02
7.396,-0.02
7.398,-0.09
7.4,-0.2
7.402,-0.3
7.404,-0.31
7.406,-0.3
7.408,-0.235
7.41,-0.12
7.412,-0.045
7.414,-0.02
7.416,-0.04
7.418,-0.09
7.42,-0.175
7.422,-0.185
7.424,-0.14
7.426,-0.035
7.428,0.135
7.43,0.355
7.432,0.5
7.434,0.605
7.436,0.68
7.438,0.655
7.44,0.5
7.442,0.315
7.444,0.19
7.446,0.1
7.448,0.075
7.45,0.06
7.452,-0.005
7.454,-0.14
7.456,-0.295
7.458,-0.41
7.46,-0.535
7.462,-0.585
7.464,-0.61
7.466,-0.565
7.468,-0.475
7.47,-0.315
7.472,-0.235
7.474,-0.2
7.476,-0.2
7.478,-0.22
7.48,-0.33
7.482,-0.37
7.484,-0.37
7.486,-0.31
7.488,-0.22
7.49,-0.07
7.492,-0.015
7.494,-0.005
7.496,-0.04
7.498,-0.105
7.5,-0.235
7.502,-0.285
7.504,-0.29
7.506,-0.24
7.508,-0.17
7.51,-0.03
7.512,0.005
7.514,0.025
7.516,-0.015
7.518,-0.09
7.52,-0.22
7.522,-0.265
7.524,-0.275
7.526,-0.23
7.528,-0.15
7.53,-0.01
7.532,0.025
7.534,0.045
7.536,-0.005
7.538,-0.075
7.54,-0.21
7.542,-0.245
7.544,-0.255
7.546,-0.195
7.548,-0.12
7.55,0.015
7.552,0.035
7.554,0.05
7.556,0.005
7.558,-0.075
7.56,-0.2
7.562,-0.235
7.564,-0.245
7.566,-0.18
7.568,-0.11
7.57,0.03
7.572,0.065
7.574,0.07
7.576,0.015
7.578,-0.055
7.58,-0.185
7.582,-0.195
7.584,-0.2
7.586,-0.145
7.588,-0.05
7.59,0.075
7.592,0.105
7.594,0.1
7.596,0.045
7.598,-0.03
7.6,-0.13
7.602,-0.15
7.604,-0.145
7.606,-0.085
7.608,0.01
7.61,0.13
7.612,0.16
7.614,0.16
7.616,0.115
7.618,0.025
7.62,-0.075
7.622,-0.09
7.624,-0.09
7.626,-0.015
7.628,0.1
7.63,0.215
7.632,0.225
7.634,0.235
7.636,0.175
7.638,0.095
7.64,0.005
7.642,-0.025
7.644,-0.01
7.646,0.05
7.648,0.16
7.65,0.25
7.652,0.27
7.654,0.26
7.656,0.2
7.658,0.095
7.66,-0.01
7.662,-0.03
7.664,-0.025
7.666,0.035
7.668,0.13
7.67,0.205
7.672,0.21
7.674,0.175
7.676,0.1
7.678,-0.03
7.68,-0.13
7.682,-0.165
7.684,-0.165
7.686,-0.115
7.688,-0.015
7.69,0.055
7.692,0.05
7.694,0.03
7.696,-0.055
7.698,-0.19
7.7,-0.26
7.702,-0.31
7.704,-0.295
7.706,-0.23
7.708,-0.1
7.71,-0.04
7.712,-0.03
7.714,-0.06
7.716,-0.125
7.718,-0.245
7.72,-0.32
7.722,-0.34
7.724,-0.315
7.726,-0.25
7.728,-0.13
7.73,-0.065
7.732,-0.04
7.734,-0.075
7.736,-0.15
7.738,-0.28
7.74,-0.335
7.742,-0.36
7.744,-0.325
7.746,-0.255
7.748,-0.115
7.75,-0.065
7.752,-0.065
7.754,-0.095
7.756,-0.15
7.758,-0.295
7.76,-0.34
7.762,-0.35
7.764,-0.33
7.766,-0.25
7.768,-0.115
7.77,-0.06
7.772,-0.065
7.774,-0.105
7.776,-0.165
7.778,-0.305
7.78,-0.35
7.782,-0.36
7.784,-0.305
7.786,-0.24
7.788,-0.105
7.79,-0.07
7.792,-0.06
7.794,-0.105
7.796,-0.175
7.798,-0.305
7.8,-0.335
7.802,-0.34
7.804,-0.295
7.806,-0.22
7.808,-0.09
7.81,-0.055
7.812,-0.045
7.814,-0.09
7.816,-0.17
7.818,-0.295
7.82,-0.335
7.822,-0.34
7.824,-0.3
7.826,-0.215
7.828,-0.09
7.83,-0.06
7.832,-0.05
7.834,-0.1
7.836,-0.17
7.838,-0.295
7.84,-0.33
7.842,-0.34
7.844,-0.29
7.846,-0.2
7.848,-0.08
7.85,-0.045
7.852,-0.04
7.854,-0.09
7.856,-0.175
7.858,-0.295
7.86,-0.33
7.862,-0.325
7.864,-0.27
7.866,-0.19
7.868,-0.065
7.87,-0.05
7.872,-0.045
7.874,-0.095
7.876,-0.195
7.878,-0.31
7.88,-0.335
7.882,-0.34
7.884,-0.27
7.886,-0.185
7.888,-0.08
7.89,-0.05
7.892,-0.06
7.894,-0.12
7.896,-0.215
7.898,-0.315
7.9,-0.335
7.902,-0.33
7.904,-0.27
7.906,-0.165
7.908,-0.07
7.91,-0.055
7.912,-0.06
7.914,-0.115
7.916,-0.22
7.918,-0.32
7.92,-0.335
7.922,-0.325
7.924,-0.26
7.926,-0.155
7.928,-0.065
7.93,-0.045
7.932,-0.06
7.934,-0.125
7.936,-0.22
7.938,-0.315
7.94,-0.335
7.942,-0.325
7.944,-0.255
7.946,-0.13
7.948,-0.05
7.95,-0.04
7.952,-0.06
7.954,-0.13
7.956,-0.24
7.958,-0.32
7.96,-0.335
7.962,-0.31
7.964,-0.26
7.966,-0.135
7.968,-0.06
7.97,-0.04
7.972,-0.06
7.974,-0.125
7.976,-0.25
7.978,-0.32
7.98,-0.335
7.982,-0.295
7.984,-0.24
7.986,-0.115
7.988,-0.06
7.99,-0.045
7.992,-0.065
7.994,-0.135
7.996,-0.26
7.998,-0.325
8,-0.34
8.002,-0.305
8.004,-0.235
8.006,-0.115
8.008,-0.055
8.01,-0.03
8.012,-0.07
8.014,-0.13
8.016,-0.25
8.018,-0.315
8.02,-0.33
8.022,-0.29
8.024,-0.215
8.026,-0.08
8.028,-0.025
8.03,0.005
8.032,-0.02
8.034,-0.08
8.036,-0.22
8.038,-0.27
8.04,-0.29
8.042,-0.26
8.044,-0.2
8.046,-0.08
8.048,-0.03
8.05,-0.015
8.052,-0.065
8.054,-0.145
8.056,-0.285
8.058,-0.335
8.06,-0.335
8.062,-0.3
8.064,-0.23
8.066,-0.09
8.068,-0.06
8.07,-0.045
8.072,-0.085
8.074,-0.16
8.076,-0.29
8.078,-0.325
8.08,-0.34
8.082,-0.295
8.084,-0.225
8.086,-0.095
8.088,-0.055
8.09,-0.045
8.092,-0.09
8.094,-0.165
8.096,-0.295
8.098,-0.335
8.1,-0.34
8.102,-0.28
8.104,-0.195
8.106,-0.07
8.108,-0.035
8.11,-0.035
8.112,-0.09
8.114,-0.185
8.116,-0.31
8.118,-0.335
8.12,-0.325
8.122,-0.275
8.124,-0.195
8.126,-0.075
8.128,-0.06
8.13,-0.045
8.132,-0.1
8.134,-0.165
8.136,-0.22
8.138,-0.185
8.14,-0.105
8.142,0.06
8.144,0.25
8.146,0.45
8.148,0.56
8.15,0.665
8.152,0.69
8.154,0.59
8.156,0.365
8.158,0.225
8.16,0.125
8.162,0.09
8.164,0.07
8.166,0.035
8.168,-0.09
8.17,-0.245
8.172,-0.395
8.174,-0.5
8.176,-0.595
8.178,-0.62
8.18,-0.6
8.182,-0.515
8.184,-0.39
8.186,-0.27
8.188,-0.23
8.19,-0.205
8.192,-0.215
8.194,-0.3
8.196,-0.37
8.198,-0.365
8.2,-0.33
8.202,-0.26
8.204,-0.14
8.206,-0.035
8.208,-0.015
8.21,-0.02
8.212,-0.085
8.214,-0.195
8.216,-0.275
8.218,-0.29
8.22,-0.275
8.222,-0.205
8.224,-0.085
8.226,-0.01
8.228,0.02
8.23,0.005
8.232,-0.065
8.234,-0.18
8.236,-0.255
8.238,-0.275
8.24,-0.265
8.242,-0.2
8.244,-0.055
8.246,0.015
8.248,0.025
8.25,0.01
8.252,-0.055
8.254,-0.175
8.256,-0.24
8.258,-0.255
8.26,-0.23
8.262,-0.16
8.264,-0.04
8.266,0.025
8.268,0.05
8.27,0.02
8.272,-0.04
8.274,-0.17
8.276,-0.225
8.278,-0.24
8.28,-0.205
8.282,-0.13
8.284,-0.01
8.286,0.05
8.288,0.07
8.29,0.035
8.292,-0.03
8.294,-0.15
8.296,-0.195
8.298,-0.22
8.3,-0.17
8.302,-0.1
8.304,0.03
8.306,0.095
8.308,0.115
8.31,0.085
8.312,0.015
8.314,-0.11
8.316,-0.155
8.318,-0.165
8.32,-0.11
8.322,-0.04
8.324,0.11
8.326,0.145
8.328,0.17
8.33,0.13
8.332,0.085
8.334,-0.04
8.336,-0.075
8.338,-0.07
8.34,-0.02
8.342,0.055
8.344,0.195
8.346,0.25
8.348,0.26
8.35,0.215
8.352,0.155
8.354,0.025
8.356,-0.005
8.358,-0.01
8.36,0.04
8.362,0.115
8.364,0.255
8.366,0.285
8.368,0.295
8.37,0.255
8.372,0.165
8.374,0.04
8.376,0
8.378,-0.02
8.38,0.025
8.382,0.105
8.384,0.215
8.386,0.235
8.388,0.225
8.39,0.155
8.392,0.04
8.394,-0.1
8.396,-0.145
8.398,-0.175
8.4,-0.125
8.402,-0.05
8.404,0.055
8.406,0.065
8.408,0.055
8.41,-0.01
8.412,-0.105
8.414,-0.235
8.416,-0.275
8.418,-0.28
8.42,-0.24
8.422,-0.15
8.424,-0.035
8.426,-0.02
8.428,-0.025
8.43,-0.09
8.432,-0.19
8.434,-0.3
8.436,-0.32
8.438,-0.32
8.44,-0.26
8.442,-0.165
8.444,-0.055
8.446,-0.04
8.448,-0.035
8.45,-0.105
8.452,-0.205
8.454,-0.31
8.456,-0.33
8.458,-0.32
8.46,-0.255
8.462,-0.15
8.464,-0.055
8.466,-0.045
8.468,-0.06
8.47,-0.13
8.472,-0.22
8.474,-0.315
8.476,-0.325
8.478,-0.32
8.48,-0.26
8.482,-0.15
8.484,-0.065
8.486,-0.05
8.488,-0.06
8.49,-0.13
8.492,-0.235
8.494,-0.305
8.496,-0.33
8.498,-0.315
8.5,-0.245
8.502,-0.125
8.504,-0.055
8.506,-0.035
8.508,-0.055
8.51,-0.115
8.512,-0.23
8.514,-0.305
8.516,-0.32
8.518,-0.3
8.52,-0.235
8.522,-0.105
8.524,-0.035
8.526,-0.015
8.528,-0.04
8.53,-0.11
8.532,-0.235
8.534,-0.295
8.536,-0.315
8.538,-0.295
8.54,-0.22
8.542,-0.085
8.544,-0.025
8.546,-0.01
8.548,-0.04
8.55,-0.11
8.552,-0.235
8.554,-0.3
8.556,-0.31
8.558,-0.275
8.56,-0.21
8.562,-0.075
8.564,-0.025
8.566,-0.015
8.568,-0.045
8.57,-0.105
8.572,-0.24
8.574,-0.29
8.576,-0.31
8.578,-0.27
8.58,-0.2
8.582,-0.075
8.584,-0.03
8.586,-0.025
8.588,-0.055
8.59,-0.11
8.592,-0.25
8.594,-0.295
8.596,-0.31
8.598,-0.27
8.6,-0.2
8.602,-0.06
8.604,-0.02
8.606,-0.015
8.608,-0.06
8.61,-0.125
8.612,-0.255
8.614,-0.3
8.616,-0.31
8.618,-0.265
8.62,-0.195
8.622,-0.065
8.624,-0.03
8.626,-0.02
8.628,-0.065
8.63,-0.135
8.632,-0.27
8.634,-0.315
8.636,-0.315
8.638,-0.265
8.64,-0.195
8.642,-0.065
8.644,-0.015
8.646,-0.015
8.648,-0.075
8.65,-0.16
8.652,-0.28
8.654,-0.32
8.656,-0.315
8.658,-0.265
8.66,-0.185
8.662,-0.065
8.664,-0.03
8.666,-0.035
8.668,-0.08
8.67,-0.155
8.672,-0.285
8.674,-0.31
8.676,-0.315
8.678,-0.255
8.68,-0.165
8.682,-0.05
8.684,-0.015
8.686,-0.02
8.688,-0.07
8.69,-0.165
8.692,-0.28
8.694,-0.31
8.696,-0.31
8.698,-0.245
8.7,-0.15
8.702,-0.045
8.704,-0.02
8.706,-0.02
8.708,-0.075
8.71,-0.17
8.712,-0.27
8.714,-0.29
8.716,-0.29
8.718,-0.24
8.72,-0.135
8.722,-0.035
8.724,-0.01
8.726,-0.015
8.728,-0.06
8.73,-0.145
8.732,-0.24
8.734,-0.25
8.736,-0.24
8.738,-0.19
8.74,-0.085
8.742,-0.005
8.744,0.01
8.746,-0.025
8.748,-0.095
8.75,-0.185
8.752,-0.28
8.754,-0.305
8.756,-0.305
8.758,-0.25
8.76,-0.135
8.762,-0.055
8.764,-0.025
8.766,-0.04
8.768,-0.105
8.77,-0.215
8.772,-0.3
8.774,-0.32
8.776,-0.3
8.778,-0.235
8.78,-0.12
8.782,-0.05
8.784,-0.03
8.786,-0.05
8.788,-0.11
8.79,-0.24
8.792,-0.3
8.794,-0.325
8.796,-0.3
8.798,-0.235
8.8,-0.12
8.802,-0.06
8.804,-0.03
8.806,-0.055
8.808,-0.12
8.81,-0.25
8.812,-0.305
8.814,-0.33
8.816,-0.305
8.818,-0.225
8.82,-0.105
8.822,-0.04
8.824,-0.015
8.826,-0.055
8.828,-0.13
8.83,-0.26
8.832,-0.31
8.834,-0.31
8.836,-0.21
8.838,-0.085
8.84,0.13
8.842,0.27
8.844,0.38
8.846,0.445
8.848,0.47
8.85,0.445
8.852,0.47
8.854,0.47
8.856,0.405
8.858,0.355
8.86,0.365
8.862,0.32
8.864,0.22
8.866,0.04
8.868,-0.18
8.87,-0.465
8.872,-0.605
8.874,-0.62
8.876,-0.58
8.878,-0.49
8.88,-0.35
8.882,-0.3
8.884,-0.26
8.886,-0.285
8.888,-0.34
8.89,-0.43
8.892,-0.425
8.894,-0.4
8.896,-0.345
8.898,-0.24
8.9,-0.095
8.902,-0.045
8.904,-0.025
8.906,-0.065
8.908,-0.13
8.91,-0.265
8.912,-0.3
8.914,-0.305
8.916,-0.25
8.918,-0.17
8.92,-0.035
8.922,0
8.924,0.005
8.926,-0.045
8.928,-0.12
8.93,-0.245
8.932,-0.27
8.934,-0.28
8.936,-0.225
8.938,-0.14
8.94,-0.015
8.942,0.02
8.944,0.015
8.946,-0.035
8.948,-0.105
8.95,-0.22
8.952,-0.25
8.954,-0.25
8.956,-0.195
8.958,-0.11
8.96,0.015
8.962,0.035
8.964,0.04
8.966,-0.015
8.968,-0.1
8.97,-0.215
8.972,-0.24
8.974,-0.235
8.976,-0.17
8.978,-0.07
8.98,0.045
8.982,0.07
8.984,0.065
8.986,0
8.988,-0.1
8.99,-0.2
8.992,-0.215
8.994,-0.21
8.996,-0.155
8.998,-0.035
9,0.06
9.002,0.09
9.004,0.09
9.006,0.03
9.008,-0.06
9.01,-0.15
9.012,-0.175
9.014,-0.155
9.016,-0.085
9.018,0.025
9.02,0.115
9.022,0.15
9.024,0.145
9.026,0.09
9.028,0
9.03,-0.09
9.032,-0.105
9.034,-0.08
9.036,0
9.038,0.11
9.04,0.205
9.042,0.23
9.044,0.22
9.046,0.16
9.048,0.055
9.05,-0.02
9.052,-0.025
9.054,0.005
9.056,0.075
9.058,0.195
9.06,0.27
9.062,0.28
9.064,0.28
9.066,0.205
9.068,0.085
9.07,0.005
9.072,-0.005
9.074,0.015
9.076,0.075
9.078,0.19
9.08,0.25
9.082,0.26
9.084,0.22
9.086,0.145
9.088,0
9.09,-0.09
9.092,-0.13
9.094,-0.11
9.096,-0.065
9.098,0.05
9.1,0.095
9.102,0.09
9.104,0.04
9.106,-0.035
9.108,-0.175
9.11,-0.245
9.112,-0.26
9.114,-0.24
9.116,-0.19
9.118,-0.06
9.12,-0.025
9.122,0
9.124,-0.04
9.126,-0.125
9.128,-0.265
9.13,-0.305
9.132,-0.32
9.134,-0.28
9.136,-0.22
9.138,-0.1
9.14,-0.04
9.142,-0.035
9.144,-0.085
9.146,-0.155
9.148,-0.285
9.15,-0.33
9.152,-0.335
9.154,-0.295
9.156,-0.23
9.158,-0.105
9.16,-0.065
9.162,-0.05
9.164,-0.09
9.166,-0.16
9.168,-0.295
9.17,-0.33
9.172,-0.34
9.174,-0.295
9.176,-0.225
9.178,-0.1
9.18,-0.06
9.182,-0.05
9.184,-0.1
9.186,-0.18
9.188,-0.31
9.19,-0.35
9.192,-0.34
9.194,-0.295
9.196,-0.215
9.198,-0.09
9.2,-0.055
9.202,-0.055
9.204,-0.1
9.206,-0.185
9.208,-0.31
9.21,-0.33
9.212,-0.34
9.214,-0.29
9.216,-0.205
9.218,-0.085
9.22,-0.055
9.222,-0.05
9.224,-0.095
9.226,-0.185
9.228,-0.3
9.23,-0.335
9.232,-0.33
9.234,-0.27
9.236,-0.185
9.238,-0.07
9.24,-0.055
9.242,-0.045
9.244,-0.105
9.246,-0.195
9.248,-0.305
9.25,-0.33
9.252,-0.32
9.254,-0.265
9.256,-0.165
9.258,-0.06
9.26,-0.04
9.262,-0.04
9.264,-0.105
9.266,-0.205
9.268,-0.305
9.27,-0.325
9.272,-0.315
9.274,-0.25
9.276,-0.155
9.278,-0.055
9.28,-0.04
9.282,-0.045
9.284,-0.11
9.286,-0.21
9.288,-0.295
9.29,-0.335
9.292,-0.315
9.294,-0.25
9.296,-0.14
9.298,-0.06
9.3,-0.03
9.302,-0.055
9.304,-0.115
9.306,-0.22
9.308,-0.305
9.31,-0.325
9.312,-0.31
9.314,-0.245
9.316,-0.135
9.318,-0.065
9.32,-0.04
9.322,-0.05
9.324,-0.12
9.326,-0.235
9.328,-0.315
9.33,-0.33
9.332,-0.31
9.334,-0.24
9.336,-0.125
9.338,-0.055
9.34,-0.035
9.342,-0.055
9.344,-0.13
9.346,-0.25
9.348,-0.31
9.35,-0.33
9.352,-0.3
9.354,-0.24
9.356,-0.12
9.358,-0.055
9.36,-0.045
9.362,-0.07
9.364,-0.14
9.366,-0.265
9.368,-0.315
9.37,-0.33
9.372,-0.295
9.374,-0.23
9.376,-0.105
9.378,-0.055
9.38,-0.04
9.382,-0.075
9.384,-0.13
9.386,-0.25
9.388,-0.3
9.39,-0.32
9.392,-0.285
9.394,-0.215
9.396,-0.085
9.398,-0.045
9.4,-0.035
9.402,-0.07
9.404,-0.135
9.406,-0.255
9.408,-0.3
9.41,-0.325
9.412,-0.285
9.414,-0.205
9.416,-0.075
9.418,-0.035
9.42,-0.02
9.422,-0.07
9.424,-0.13
9.426,-0.255
9.428,-0.285
9.43,-0.285
9.432,-0.24
9.434,-0.155
9.436,-0.025
9.438,0.025
9.44,0.03
9.442,-0.02
9.444,-0.11
9.446,-0.25
9.448,-0.3
9.45,-0.315
9.452,-0.265
9.454,-0.195
9.456,-0.07
9.458,-0.05
9.46,-0.045
9.462,-0.095
9.464,-0.17
9.466,-0.295
9.468,-0.325
9.47,-0.335
9.472,-0.29
9.474,-0.205
9.476,-0.07
9.478,-0.045
9.48,-0.045
9.482,-0.095
9.484,-0.175
9.486,-0.31
9.488,-0.335
9.49,-0.34
9.492,-0.29
9.494,-0.2
9.496,-0.07
9.498,-0.05
9.5,-0.05
9.502,-0.105
9.504,-0.185
9.506,-0.31
9.508,-0.33
9.51,-0.33
9.512,-0.275
9.514,-0.185
9.516,-0.07
9.518,-0.055
9.52,-0.05
9.522,-0.115
9.524,-0.2
9.526,-0.315
9.528,-0.335
9.53,-0.34
9.532,-0.275
9.534,-0.19
9.536,-0.075
9.538,-0.005
9.54,0.05
9.542,0.06
9.544,0.055
9.546,0.06
9.548,0.14
9.55,0.23
9.552,0.4
9.554,0.605
9.556,0.755
9.558,0.7
9.56,0.57
9.562,0.385
9.564,0.175
9.566,-0.025
9.568,-0.175
9.57,-0.295
9.572,-0.405
9.574,-0.42
9.576,-0.375
9.578,-0.35
9.58,-0.36
9.582,-0.415
9.584,-0.51
9.586,-0.57
9.588,-0.565
9.59,-0.53
9.592,-0.425
9.594,-0.27
9.596,-0.165
9.598,-0.12
9.6,-0.115
9.602,-0.165
9.604,-0.265
9.606,-0.315
9.608,-0.33
9.61,-0.31
9.612,-0.24
9.614,-0.11
9.616,-0.04
9.618,-0.025
9.62,-0.05
9.622,-0.105
9.624,-0.22
9.626,-0.29
9.628,-0.315
9.63,-0.285
9.632,-0.205
9.634,-0.08
9.636,-0.02
9.638,-0.005
9.64,-0.025
9.642,-0.095
9.644,-0.22
9.646,-0.28
9.648,-0.29
9.65,-0.255
9.652,-0.185
9.654,-0.055
9.656,0.005
9.658,0.015
9.66,-0.02
9.662,-0.085
9.664,-0.215
9.666,-0.265
9.668,-0.28
9.67,-0.24
9.672,-0.17
9.674,-0.04
9.676,0.01
9.678,0.025
9.68,-0.005
9.682,-0.075
9.684,-0.2
9.686,-0.24
9.688,-0.255
9.69,-0.215
9.692,-0.14
9.694,-0.01
9.696,0.035
9.698,0.045
9.7,0.025
9.702,-0.045
9.704,-0.185
9.706,-0.22
9.708,-0.23
9.71,-0.17
9.712,-0.09
9.714,0.05
9.716,0.085
9.718,0.105
9.72,0.06
9.722,-0.01
9.724,-0.135
9.726,-0.16
9.728,-0.17
9.73,-0.11
9.732,-0.025
9.734,0.115
9.736,0.155
9.738,0.175
9.74,0.12
9.742,0.05
9.744,-0.065
9.746,-0.085
9.748,-0.085
9.75,-0.03
9.752,0.06
9.754,0.19
9.756,0.23
9.758,0.24
9.76,0.185
9.762,0.115
9.764,0
9.766,-0.035
9.768,-0.035
9.77,0.025
9.772,0.12
9.774,0.235
9.776,0.265
9.778,0.25
9.78,0.195
9.782,0.09
9.784,-0.03
9.786,-0.075
9.788,-0.085
9.79,-0.045
9.792,0.035
9.794,0.125
9.796,0.135
9.798,0.11
9.8,0.035
9.802,-0.08
9.804,-0.21
9.806,-0.24
9.808,-0.255
9.81,-0.21
9.812,-0.11
9.814,-0.03
9.816,-0.02
9.818,-0.02
9.82,-0.1
9.822,-0.2
9.824,-0.305
9.826,-0.34
9.828,-0.335
9.83,-0.28
9.832,-0.17
9.834,-0.09
9.836,-0.07
9.838,-0.09
9.84,-0.15
9.842,-0.255
9.844,-0.345
9.846,-0.365
9.848,-0.35
9.85,-0.305
9.852,-0.18
9.854,-0.095
9.856,-0.075
9.858,-0.095
9.86,-0.16
9.862,-0.275
9.864,-0.36
9.866,-0.375
9.868,-0.35
9.87,-0.29
9.872,-0.175
9.874,-0.105
9.876,-0.08
9.878,-0.1
9.88,-0.17
9.882,-0.285
9.884,-0.36
9.886,-0.375
9.888,-0.345
9.89,-0.29
9.892,-0.18
9.894,-0.11
9.896,-0.09
9.898,-0.12
9.9,-0.18
9.902,-0.305
9.904,-0.37
9.906,-0.38
9.908,-0.35
9.91,-0.285
9.912,-0.16
9.914,-0.095
9.916,-0.08
9.918,-0.105
9.92,-0.17
9.922,-0.3
9.924,-0.36
9.926,-0.37
9.928,-0.345
9.93,-0.27
9.932,-0.14
9.934,-0.085
9.936,-0.075
9.938,-0.105
9.94,-0.175
9.942,-0.31
9.944,-0.36
9.946,-0.37
9.948,-0.33
9.95,-0.265
9.952,-0.135
9.954,-0.08
9.956,-0.075
9.958,-0.115
9.96,-0.175
9.962,-0.305
9.964,-0.35
9.966,-0.365
9.968,-0.32
9.97,-0.255
9.972,-0.115
9.974,-0.08
9.976,-0.07
9.978,-0.1
9.98,-0.175
9.982,-0.305
9.984,-0.345
9.986,-0.36
9.988,-0.31
9.99,-0.245
9.992,-0.115
9.994,-0.075
9.996,-0.075
9.998,-0.11
