0,0.055
0.002,0.055
0.004,0.09
0.006,-0.09
0.008,-0.005
0.01,-0.205
0.012,-0.2
0.014,-0.175
0.016,-0.12
0.018,-0.07
0.02,0.07
0.022,0.16
0.024,0.1
0.026,-0.035
0.028,-0.07
0.03,-0.175
0.032,-0.15
0.034,-0.1
0.036,-0.06
0.038,0
0.04,0.09
0.042,0.06
0.044,0
0.046,-0.025
0.048,-0.075
0.05,-0.175
0.052,-0.15
0.054,-0.25
0.056,-0.04
0.058,0.01
0.06,0.08
0.062,0.115
0.064,0.065
0.066,-0.015
0.068,0.035
0.07,-0.07
0.072,-0.14
0.074,-0.14
0.076,-0.07
0.078,0.055
0.08,0.155
0.082,0.205
0.084,0.07
0.086,-0.05
0.088,-0.115
0.09,-0.16
0.092,-0.16
0.094,-0.02
0.096,0.04
0.098,0.04
0.1,0.125
0.102,0.215
0.104,0.145
0.106,0.005
0.108,-0.13
0.11,-0.31
0.112,-0.17
0.114,0.125
0.116,0.105
0.118,0.065
0.12,0.235
0.122,0.255
0.124,0.165
0.126,0.06
0.128,0.17
0.13,-0.005
0.132,0.01
0.134,0.015
0.136,-0.025
0.138,0.105
0.14,0.255
0.142,0.26
0.144,0.22
0.146,0.1
0.148,0.115
0.15,-0.11
0.152,0
0.154,-0.01
0.156,0.055
0.158,0.235
0.16,0.385
0.162,0.395
0.164,0.245
0.166,0.235
0.168,0.15
0.17,-0.01
0.172,-0.015
0.174,0.125
0.176,0.21
0.178,0.185
0.18,0.205
0.182,0.22
0.184,0.23
0.186,0.185
0.188,0.18
0.19,0.055
0.192,-0.005
0.194,0.09
0.196,0.24
0.198,0.21
0.2,0.395
0.202,0.255
0.204,0.19
0.206,0.09
0.208,0.055
0.21,-0.15
0.212,-0.03
0.214,0.06
0.216,0.085
0.218,0.19
0.22,0.205
0.222,0.245
0.224,0.09
0.226,0.035
0.228,-0.105
0.23,-0.165
0.232,-0.115
0.234,0
0.236,0.02
0.238,0.04
0.24,0.065
0.242,0.04
0.244,0.195
0.246,0.06
0.248,0.01
0.25,-0.145
0.252,-0.255
0.254,-0.035
0.256,0.045
0.258,0.125
0.26,0.265
0.262,0.235
0.264,0.065
0.266,-0.03
0.268,-0.065
0.27,-0.105
0.272,-0.11
0.274,0.025
0.276,0.09
0.278,0.065
0.28,0.175
0.282,0.205
0.284,0.13
0.286,0.05
0.288,-0.08
0.29,-0.065
0.292,-0.035
0.294,-0.12
0.296,-0.035
0.298,0.125
0.3,0.31
0.302,0.375
0.304,0.275
0.306,0.025
0.308,-0.235
0.31,-0.2
0.312,-0.1
0.314,0.03
0.316,0.005
0.318,0.12
0.32,0.185
0.322,0.14
0.324,0.005
0.326,-0.115
0.328,-0.215
0.33,-0.24
0.332,-0.005
0.334,-0.03
0.336,0.165
0.338,0.185
0.34,0.205
0.342,0.21
0.344,0.22
0.346,0.135
0.348,0.025
0.35,-0.085
0.352,-0.135
0.354,0.02
0.356,0.15
0.358,0.12
0.36,0.095
0.362,0.195
0.364,0.005
0.366,0.03
0.368,-0.105
0.37,-0.075
0.372,-0.095
0.374,0
0.376,0.03
0.378,0.13
0.38,0.21
0.382,0.15
0.384,0.025
0.386,-0.115
0.388,0.025
0.39,0.105
0.392,-0.165
0.394,-0.085
0.396,0.015
0.398,0.18
0.4,0.25
0.402,0.165
0.404,0.05
0.406,0.045
0.408,-0.055
0.41,-0.085
0.412,-0.05
0.414,0.015
0.416,0.09
0.418,0.22
0.42,0.1
0.422,-0.025
0.424,0.025
0.426,0.105
0.428,-0.065
0.43,-0.06
0.432,-0.015
0.434,0.095
0.436,0.13
0.438,0.26
0.44,0.25
0.442,0.04
0.444,-0.08
0.446,-0.13
0.448,-0.245
0.45,-0.015
0.452,0.055
0.454,0.185
0.456,0.095
0.458,0.185
0.46,0.155
0.462,0.115
0.464,0.015
0.466,-0.03
0.468,-0.155
0.47,-0.06
0.472,-0.085
0.474,0.055
0.476,-0.035
0.478,0.2
0.48,0.245
0.482,0.17
0.484,0.09
0.486,0.015
0.488,-0.145
0.49,-0.05
0.492,-0.015
0.494,0.005
0.496,0.025
0.498,0.195
0.5,0.265
0.502,0.155
0.504,-0.1
0.506,-0.17
0.508,0.06
0.51,-0.075
0.512,-0.025
0.514,0.045
0.516,0.05
0.518,0.11
0.52,0.215
0.522,0.18
0.524,-0.025
0.526,-0.135
0.528,-0.205
0.53,-0.215
0.532,-0.03
0.534,0.075
0.536,0.235
0.538,0.295
0.54,0.18
0.542,0.095
0.544,-0.06
0.546,-0.055
0.548,-0.165
0.55,0.015
0.552,-0.015
0.554,0.045
0.556,0.21
0.558,0.22
0.56,0.2
0.562,0.06
0.564,-0.02
0.566,-0.045
0.568,-0.225
0.57,-0.18
0.572,-0.005
0.574,0.085
0.576,0.085
0.578,0.215
0.58,0.15
0.582,0.115
0.584,0.015
0.586,-0.095
0.588,-0.07
0.59,-0.05
0.592,-0.045
0.594,-0.02
0.596,-0.005
0.598,0.11
0.6,0.235
0.602,0.165
0.604,0.12
0.606,0.02
0.608,-0.03
0.61,-0.13
0.612,0.09
0.614,0.095
0.616,0.1
0.618,0.165
0.62,0.2
0.622,0.135
0.624,0.02
0.626,-0.085
0.628,-0.08
0.63,-0.015
0.632,0.035
0.634,0.08
0.636,0.12
0.638,0.27
0.64,0.28
0.642,0.19
0.644,0.115
0.646,-0.065
0.648,-0.025
0.65,0.015
0.652,0.225
0.654,0.18
0.656,0.215
0.658,0.18
0.66,0.22
0.662,0.235
0.664,0.13
0.666,-0.065
0.668,0.095
0.67,0.1
0.672,0.07
0.674,0.025
0.676,0.065
0.678,0.225
0.68,0.38
0.682,0.17
0.684,0.065
0.686,-0.045
0.688,-0.015
0.69,0.03
0.692,0.05
0.694,0.06
0.696,0.185
0.698,0.19
0.7,0.03
0.702,0.035
0.704,-0.05
0.706,-0.155
0.708,-0.125
0.71,-0.08
0.712,-0.015
0.714,0.045
0.716,0.27
0.718,0.2
0.72,0.13
0.722,0.055
0.724,-0.005
0.726,-0.08
0.728,-0.08
0.73,-0.105
0.732,0.03
0.734,0.085
0.736,0.135
0.738,0.175
0.74,0.075
0.742,0.01
0.744,-0.06
0.746,-0.315
0.748,-0.145
0.75,-0.12
0.752,-0.04
0.754,-0.025
0.756,0.16
0.758,0.275
0.76,0.425
0.762,0.45
0.764,0.5
0.766,0.54
0.768,0.705
0.77,0.99
0.772,1.24
0.774,1.35
0.776,1.5
0.778,1.575
0.78,1.335
0.782,1.195
0.784,1.07
0.786,0.925
0.788,0.69
0.79,0.335
0.792,0.245
0.794,0.125
0.796,0.015
0.798,0.19
0.8,0.105
0.802,-0.05
0.804,-0.13
0.806,-0.245
0.808,-0.175
0.81,0.005
0.812,0.01
0.814,0.11
0.816,0.21
0.818,0.205
0.82,0.15
0.822,-0.045
0.824,-0.155
0.826,-0.09
0.828,-0.075
0.83,-0.02
0.832,0.045
0.834,0.055
0.836,0.055
0.838,0.115
0.84,0.09
0.842,0.065
0.844,-0.14
0.846,-0.16
0.848,-0.12
0.85,-0.07
0.852,0.18
0.854,0.135
0.856,0.185
0.858,0.155
0.86,0.14
0.862,-0.04
0.864,-0.045
0.866,-0.035
0.868,0.04
0.87,-0.07
0.872,0.12
0.874,0.16
0.876,0.245
0.878,0.2
0.88,0.09
0.882,0.04
0.884,0.01
0.886,-0.025
0.888,0.015
0.89,-0.005
0.892,0.04
0.894,0.095
0.896,0.225
0.898,0.145
0.9,0
0.902,0.09
0.904,-0.02
0.906,-0.145
0.908,-0.09
0.91,0.205
0.912,0.245
0.914,0.245
0.916,0.26
0.918,0.2
0.92,0.18
0.922,-0.045
0.924,-0.045
0.926,-0.08
0.928,-0.19
0.93,0.125
0.932,0.18
0.934,0.305
0.936,0.225
0.938,0.24
0.94,0.115
0.942,0.08
0.944,-0.01
0.946,0.005
0.948,0.08
0.95,0.07
0.952,0.14
0.954,0.175
0.956,0.26
0.958,0.18
0.96,0.145
0.962,0.025
0.964,0.115
0.966,0.12
0.968,0.215
0.97,0.115
0.972,0.18
0.974,0.305
0.976,0.25
0.978,0.3
0.98,0.255
0.982,0.205
0.984,0.075
0.986,0.11
0.988,0.16
0.99,0.225
0.992,0.275
0.994,0.385
0.996,0.39
0.998,0.335
1,0.235
1.002,0.265
1.004,0.14
1.006,0.18
1.008,0.2
1.01,0.295
1.012,0.355
1.014,0.345
1.016,0.345
1.018,0.385
1.02,0.415
1.022,0.205
1.024,0.1
1.026,0.15
1.028,0.295
1.03,0.355
1.032,0.415
1.034,0.45
1.036,0.49
1.038,0.3
1.04,0.21
1.042,0.22
1.044,0.145
1.046,0.005
1.048,0.11
1.05,0.265
1.052,0.395
1.054,0.425
1.056,0.37
1.058,0.29
1.06,0.235
1.062,0.07
1.064,-0.07
1.066,-0.015
1.068,0.135
1.07,0.15
1.072,0.135
1.074,0.305
1.076,0.345
1.078,0.295
1.08,0.13
1.082,0.06
1.084,-0.075
1.086,-0.085
1.088,0.005
1.09,0.1
1.092,0.17
1.094,0.31
1.096,0.22
1.098,0.125
1.1,0.15
1.102,0.035
1.104,-0.095
1.106,-0.03
1.108,0.02
1.11,0.02
1.112,0.085
1.114,0.185
1.116,0.145
1.118,0.125
1.12,0.115
1.122,0.045
1.124,-0.005
1.126,-0.03
1.128,0.09
1.13,0.015
1.132,0.13
1.134,0.095
1.136,0.125
1.138,0.105
1.14,0.195
1.142,0.09
1.144,0.01
1.146,0.015
1.148,0.05
1.15,0.1
1.152,0.14
1.154,0.215
1.156,0.22
1.158,0.055
1.16,0.155
1.162,0.005
1.164,-0.065
1.166,-0.055
1.168,0.12
1.17,0.205
1.172,0.155
1.174,0.245
1.176,0.165
1.178,0.1
1.18,0.145
1.182,0.075
1.184,-0.095
1.186,-0.115
1.188,-0.025
1.19,0.07
1.192,0.32
1.194,0.245
1.196,0.185
1.198,0.155
1.2,0.135
1.202,0
1.204,0.06
1.206,0.09
1.208,0.075
1.21,0.09
1.212,0.17
1.214,0.105
1.216,0.16
1.218,0.26
1.22,0.005
1.222,0.005
1.224,0.07
1.226,0.085
1.228,0.185
1.23,0.205
1.232,0.34
1.234,0.255
1.236,0.235
1.238,0.215
1.24,0.185
1.242,0.01
1.244,-0.065
1.246,-0.055
1.248,0.16
1.25,0.18
1.252,0.31
1.254,0.365
1.256,0.33
1.258,0.225
1.26,0.13
1.262,0.025
1.264,0.05
1.266,0.13
1.268,0.165
1.27,0.255
1.272,0.28
1.274,0.285
1.276,0.13
1.278,0.115
1.28,0.155
1.282,0.12
1.284,0.085
1.286,0.045
1.288,0.095
1.29,0.2
1.292,0.335
1.294,0.315
1.296,0.24
1.298,0.21
1.3,0.085
1.302,0.04
1.304,0.085
1.306,0.065
1.308,0.07
1.31,0.235
1.312,0.31
1.314,0.29
1.316,0.22
1.318,0.275
1.32,0.095
1.322,-0.01
1.324,-0.005
1.326,-0.085
1.328,0.06
1.33,0.27
1.332,0.38
1.334,0.415
1.336,0.24
1.338,0.125
1.34,0.12
1.342,0.015
1.344,-0.065
1.346,-0.075
1.348,0.17
1.35,0.27
1.352,0.3
1.354,0.335
1.356,0.27
1.358,0.19
1.36,0.18
1.362,0.005
1.364,0
1.366,0.01
1.368,0.16
1.37,0.25
1.372,0.32
1.374,0.28
1.376,0.235
1.378,0.105
1.38,0.065
1.382,0.265
1.384,0.12
1.386,0.13
1.388,0.245
1.39,0.365
1.392,0.375
1.394,0.43
1.396,0.255
1.398,0.18
1.4,0.175
1.402,0.05
1.404,0.005
1.406,0.165
1.408,0.28
1.41,0.285
1.412,0.425
1.414,0.43
1.416,0.365
1.418,0.215
1.42,0.14
1.422,0.035
1.424,-0.065
1.426,-0.04
1.428,0.095
1.43,0.19
1.432,0.27
1.434,0.25
1.436,0.25
1.438,0.12
1.44,0.145
1.442,-0.01
1.444,0.06
1.446,0.105
1.448,0.145
1.45,0.215
1.452,0.225
1.454,0.27
1.456,0.195
1.458,0.12
1.46,0.085
1.462,-0.02
1.464,-0.105
1.466,-0.075
1.468,-0.05
1.47,0.18
1.472,0.365
1.474,0.31
1.476,0.22
1.478,0.085
1.48,-0.085
1.482,-0.17
1.484,0.045
1.486,0
1.488,0.04
1.49,0.05
1.492,0.175
1.494,0.235
1.496,0.195
1.498,0.105
1.5,0.11
1.502,0.175
1.504,0.345
1.506,0.465
1.508,0.66
1.51,0.85
1.512,1.195
1.514,1.395
1.516,1.455
1.518,1.385
1.52,1.13
1.522,1
1.524,1.115
1.526,1.18
1.528,1.125
1.53,1.06
1.532,0.785
1.534,0.565
1.536,0.295
1.538,0.075
1.54,-0.12
1.542,-0.125
1.544,-0.09
1.546,0.085
1.548,0.035
1.55,0.135
1.552,0.15
1.554,0.11
1.556,0.18
1.558,0.05
1.56,-0.07
1.562,0.045
1.564,0.085
1.566,0.045
1.568,0.05
1.57,0.225
1.572,0.25
1.574,0.27
1.576,0.175
1.578,0.11
1.58,-0.015
1.582,0
1.584,-0.015
1.586,0.1
1.588,0.145
1.59,0.225
1.592,0.185
1.594,0.175
1.596,0.145
1.598,0.1
1.6,0.045
1.602,0.02
1.604,-0.02
1.606,0
1.608,0.14
1.61,0.395
1.612,0.325
1.614,0.2
1.616,0.12
1.618,0.065
1.62,-0.02
1.622,-0.065
1.624,-0.03
1.626,0.135
1.628,0.155
1.63,0.28
1.632,0.315
1.634,0.28
1.636,0.13
1.638,0.07
1.64,-0.075
1.642,-0.115
1.644,0.1
1.646,0.235
1.648,0.225
1.65,0.29
1.652,0.27
1.654,0.245
1.656,0.1
1.658,0.06
1.66,0.025
1.662,-0.01
1.664,0.15
1.666,0.195
1.668,0.125
1.67,0.26
1.672,0.31
1.674,0.23
1.676,0.2
1.678,0.16
1.68,0.095
1.682,0.07
1.684,0.11
1.686,0.215
1.688,0.19
1.69,0.385
1.692,0.365
1.694,0.215
1.696,0.105
1.698,0.035
1.7,0.055
1.702,0.025
1.704,0.165
1.706,0.22
1.708,0.345
1.71,0.415
1.712,0.4
1.714,0.345
1.716,0.295
1.718,0.185
1.72,0.1
1.722,0.14
1.724,0.165
1.726,0.285
1.728,0.39
1.73,0.435
1.732,0.38
1.734,0.44
1.736,0.34
1.738,0.325
1.74,0.16
1.742,0.13
1.744,0.32
1.746,0.355
1.748,0.44
1.75,0.495
1.752,0.32
1.754,0.31
1.756,0.365
1.758,0.23
1.76,0.245
1.762,0.33
1.764,0.41
1.766,0.385
1.768,0.52
1.77,0.505
1.772,0.5
1.774,0.445
1.776,0.32
1.778,0.2
1.78,0.195
1.782,0.27
1.784,0.315
1.786,0.31
1.788,0.415
1.79,0.455
1.792,0.44
1.794,0.42
1.796,0.27
1.798,0.045
1.8,0.05
1.802,0.135
1.804,0.065
1.806,0.23
1.808,0.475
1.81,0.28
1.812,0.315
1.814,0.285
1.816,0.185
1.818,0.005
1.82,0.105
1.822,0.11
1.824,0.18
1.826,0.145
1.828,0.315
1.83,0.32
1.832,0.3
1.834,0.21
1.836,0.085
1.838,-0.045
1.84,-0.15
1.842,-0.01
1.844,0.205
1.846,0.215
1.848,0.355
1.85,0.32
1.852,0.31
1.854,0.145
1.856,0.045
1.858,-0.1
1.86,-0.04
1.862,0.125
1.864,0.17
1.866,0.205
1.868,0.24
1.87,0.275
1.872,0.22
1.874,0.285
1.876,0.205
1.878,-0.095
1.88,-0.065
1.882,0.045
1.884,0.12
1.886,0.275
1.888,0.34
1.89,0.33
1.892,0.23
1.894,0.04
1.896,0.105
1.898,-0.105
1.9,-0.015
1.902,0.14
1.904,0.225
1.906,0.2
1.908,0.315
1.91,0.31
1.912,0.165
1.914,0.055
1.916,0.115
1.918,-0.03
1.92,-0.025
1.922,0.06
1.924,0.11
1.926,0.18
1.928,0.26
1.93,0.335
1.932,0.245
1.934,0.235
1.936,0.13
1.938,0.025
1.94,0.075
1.942,0.05
1.944,0.095
1.946,0.18
1.948,0.245
1.95,0.23
1.952,0.165
1.954,0.095
1.956,0.09
1.958,0.04
1.96,0.015
1.962,0.04
1.964,0.135
1.966,0.295
1.968,0.34
1.97,0.37
1.972,0.33
1.974,0.165
1.976,0.095
1.978,-0.015
1.98,-0.005
1.982,0.065
1.984,0.015
1.986,0.225
1.988,0.435
1.99,0.365
1.992,0.195
1.994,0.07
1.996,-0.015
1.998,-0.135
2,0.095
2.002,0.215
2.004,0.28
2.006,0.26
2.008,0.345
2.01,0.305
2.012,0.25
2.014,0.16
2.016,0.085
2.018,0.02
2.02,0
2.022,0.085
2.024,0.07
2.026,0.115
2.028,0.39
2.03,0.38
2.032,0.235
2.034,0.16
2.036,0.095
2.038,-0.005
2.04,0.055
2.042,0.09
2.044,0.155
2.046,0.355
2.048,0.335
2.05,0.22
2.052,0.13
2.054,0.12
2.056,0.025
2.058,0.01
2.06,0.08
2.062,0.11
2.064,0.205
2.066,0.305
2.068,0.305
2.07,0.32
2.072,0.21
2.074,0.11
2.076,-0.12
2.078,-0.075
2.08,0.05
2.082,0.15
2.084,0.225
2.086,0.26
2.088,0.22
2.09,0.275
2.092,0.23
2.094,0.16
2.096,0.035
2.098,-0.005
2.1,-0.02
2.102,0.14
2.104,0.225
2.106,0.3
2.108,0.27
2.11,0.29
2.112,0.155
2.114,0.085
2.116,-0.005
2.118,0.03
2.12,0.055
2.122,0.15
2.124,0.19
2.126,0.29
2.128,0.26
2.13,0.215
2.132,0.245
2.134,0.205
2.136,0.05
2.138,0.09
2.14,0.095
2.142,0.19
2.144,0.305
2.146,0.415
2.148,0.33
2.15,0.355
2.152,0.225
2.154,0.28
2.156,0.055
2.158,0.03
2.16,0.095
2.162,0.175
2.164,0.165
2.166,0.33
2.168,0.415
2.17,0.33
2.172,0.215
2.174,0.165
2.176,0.055
2.178,0.105
2.18,0.145
2.182,0.185
2.184,0.16
2.186,0.225
2.188,0.235
2.19,0.4
2.192,0.205
2.194,0.075
2.196,0.005
2.198,-0.01
2.2,0.01
2.202,-0.01
2.204,0.08
2.206,0.165
2.208,0.35
2.21,0.245
2.212,0.145
2.214,0.075
2.216,-0.005
2.218,0
2.22,0.005
2.222,0.105
2.224,0.105
2.226,0.23
2.228,0.225
2.23,0.185
2.232,0.17
2.234,0.15
2.236,-0.02
2.238,-0.05
2.24,-0.065
2.242,0.03
2.244,0.095
2.246,0.205
2.248,0.16
2.25,0.06
2.252,-0.02
2.254,-0.06
2.256,-0.13
2.258,-0.12
2.26,0.015
2.262,0.17
2.264,0.395
2.266,0.725
2.268,0.945
2.27,0.92
2.272,1.01
2.274,1.115
2.276,1.185
2.278,1.26
2.28,1.49
2.282,1.505
2.284,1.4
2.286,1.395
2.288,1.305
2.29,1.18
2.292,0.94
2.294,0.475
2.296,0.325
2.298,0.25
2.3,0.225
2.302,0.125
2.304,0.11
2.306,0.26
2.308,0.36
2.31,0.31
2.312,0.125
2.314,-0.03
2.316,0.02
2.318,0.04
2.32,-0.01
2.322,0.13
2.324,0.175
2.326,0.245
2.328,0.07
2.33,0.1
2.332,0.04
2.334,-0.135
2.336,-0.07
2.338,-0.01
2.34,0.115
2.342,0.14
2.344,0.2
2.346,0.235
2.348,0.235
2.35,0.13
2.352,0.095
2.354,-0.02
2.356,-0.035
2.358,-0.035
2.36,-0.01
2.362,0.155
2.364,0.28
2.366,0.205
2.368,0.21
2.37,0.12
2.372,0.05
2.374,-0.06
2.376,-0.155
2.378,-0.205
2.38,0.045
2.382,0.13
2.384,0.32
2.386,0.245
2.388,0.245
2.39,0.105
2.392,0.02
2.394,-0.095
2.396,-0.06
2.398,0.075
2.4,0.105
2.402,0.065
2.404,0.35
2.406,0.235
2.408,0.24
2.41,0.1
2.412,0.09
2.414,-0.08
2.416,-0.04
2.418,-0.015
2.42,0.16
2.422,0.165
2.424,0.285
2.426,0.28
2.428,0.235
2.43,0.125
2.432,0.1
2.434,-0.01
2.436,-0.015
2.438,0.005
2.44,0.04
2.442,0.145
2.444,0.2
2.446,0.36
2.448,0.24
2.45,0.14
2.452,0.1
2.454,-0.085
2.456,-0.13
2.458,0.115
2.46,0.15
2.462,0.15
2.464,0.3
2.466,0.325
2.468,0.315
2.47,0.225
2.472,0.18
2.474,-0.025
2.476,-0.015
2.478,0.08
2.48,0.2
2.482,0.18
2.484,0.34
2.486,0.265
2.488,0.22
2.49,0.125
2.492,0.325
2.494,0.09
2.496,0.095
2.498,0.2
2.5,0.31
2.502,0.31
2.504,0.385
2.506,0.365
2.508,0.36
2.51,0.27
2.512,0.225
2.514,-0.005
2.516,0.17
2.518,0.235
2.52,0.255
2.522,0.32
2.524,0.44
2.526,0.425
2.528,0.305
2.53,0.29
2.532,0.165
2.534,0.1
2.536,0.1
2.538,0.165
2.54,0.265
2.542,0.365
2.544,0.425
2.546,0.42
2.548,0.28
2.55,0.155
2.552,-0.005
2.554,0.165
2.556,0.09
2.558,0.145
2.56,0.19
2.562,0.275
2.564,0.395
2.566,0.315
2.568,0.215
2.57,0.1
2.572,0.02
2.574,0.02
2.576,0.085
2.578,0.055
2.58,0.14
2.582,0.19
2.584,0.325
2.586,0.27
2.588,0.095
2.59,0.085
2.592,-0.025
2.594,-0.13
2.596,-0.02
2.598,0.05
2.6,0.27
2.602,0.26
2.604,0.25
2.606,0.255
2.608,0.195
2.61,0.055
2.612,-0.02
2.614,-0.035
2.616,-0.09
2.618,0.05
2.62,0.085
2.622,0.14
2.624,0.22
2.626,0.16
2.628,0.135
2.63,0.12
2.632,0.025
2.634,0.01
2.636,0
2.638,0.085
2.64,0.2
2.642,0.27
2.644,0.225
2.646,0.16
2.648,0.095
2.65,0.06
2.652,-0.065
2.654,-0.015
2.656,-0.025
2.658,0.055
2.66,0.07
2.662,0.15
2.664,0.36
2.666,0.295
2.668,0.235
2.67,0.105
2.672,-0.015
2.674,-0.025
2.676,-0.02
2.678,-0.035
2.68,0.01
2.682,0.185
2.684,0.36
2.686,0.245
2.688,0.145
2.69,0.08
2.692,-0.045
2.694,-0.09
2.696,-0.01
2.698,0.05
2.7,0.085
2.702,0.27
2.704,0.21
2.706,0.215
2.708,0.15
2.71,0.065
2.712,-0.035
2.714,0
2.716,0.035
2.718,0.07
2.72,0.14
2.722,0.24
2.724,0.2
2.726,0.15
2.728,0.115
2.73,0.105
2.732,-0.045
2.734,-0.08
2.736,0.005
2.738,0.03
2.74,0.08
2.742,0.265
2.744,0.255
2.746,0.295
2.748,0.15
2.75,0.1
2.752,-0.065
2.754,-0.065
2.756,-0.02
2.758,0.13
2.76,0.165
2.762,0.22
2.764,0.265
2.766,0.23
2.768,0.075
2.77,-0.025
2.772,-0.15
2.774,0.045
2.776,0.035
2.778,0.19
2.78,0.185
2.782,0.275
2.784,0.205
2.786,0.235
2.788,0.11
2.79,0.065
2.792,-0.02
2.794,-0.045
2.796,-0.03
2.798,0.095
2.8,0.18
2.802,0.16
2.804,0.195
2.806,0.19
2.808,0.09
2.81,0.085
2.812,0.08
2.814,-0.065
2.816,0.055
2.818,0.07
2.82,0.175
2.822,0.21
2.824,0.19
2.826,0.205
2.828,0.155
2.83,0.005
2.832,-0.015
2.834,-0.04
2.836,0.035
2.838,0.115
2.84,0.2
2.842,0.26
2.844,0.24
2.846,0.215
2.848,0.145
2.85,0.01
2.852,-0.07
2.854,-0.025
2.856,-0.015
2.858,0.17
2.86,0.2
2.862,0.3
2.864,0.19
2.866,0.16
2.868,0.11
2.87,0.045
2.872,0
2.874,-0.035
2.876,0.01
2.878,-0.065
2.88,0.055
2.882,0.34
2.884,0.255
2.886,0.205
2.888,0.095
2.89,0.01
2.892,0
2.894,-0.045
2.896,-0.01
2.898,0.155
2.9,0.23
2.902,0.285
2.904,0.195
2.906,0.125
2.908,0.005
2.91,-0.025
2.912,0.045
2.914,0.025
2.916,0.1
2.918,0.17
2.92,0.285
2.922,0.225
2.924,0.03
2.926,0.07
2.928,0.185
2.93,-0.03
2.932,-0.01
2.934,0.05
2.936,0.1
2.938,0.03
2.94,0.18
2.942,0.235
2.944,0.19
2.946,0.21
2.948,0.135
2.95,0.025
2.952,0.065
2.954,0.04
2.956,0.03
2.958,0.115
2.96,0.25
2.962,0.185
2.964,0.165
2.966,0
2.968,-0.08
2.97,0.07
2.972,0.045
2.974,-0.005
2.976,0.11
2.978,0.095
2.98,0.17
2.982,0.35
2.984,0.16
2.986,0.13
2.988,0.06
2.99,-0.105
2.992,0.02
2.994,-0.01
2.996,0.105
2.998,0.115
3,0.28
3.002,0.18
3.004,0.13
3.006,0.1
3.008,0.055
3.01,0.03
3.012,0.01
3.014,0.03
3.016,0.135
3.018,0.15
3.02,0.215
3.022,0.24
3.024,0.155
3.026,0.03
3.028,-0.02
3.03,-0.165
3.032,-0.05
3.034,0.025
3.036,0.25
3.038,0.23
3.04,0.325
3.042,0.35
3.044,0.225
3.046,0.13
3.048,0.08
3.05,-0.065
3.052,-0.08
3.054,0.01
3.056,0.135
3.058,0.18
3.06,0.305
3.062,0.3
3.064,0.24
3.066,0.08
3.068,0.12
3.07,0.02
3.072,0.145
3.074,0.225
3.076,0.28
3.078,0.215
3.08,0.38
3.082,0.33
3.084,0.06
3.086,0.045
3.088,0.25
3.09,0.11
3.092,0.075
3.094,0.125
3.096,0.21
3.098,0.265
3.1,0.375
3.102,0.255
3.104,0.355
3.106,0.105
3.108,0.07
3.11,-0.005
3.112,0.02
3.114,0.185
3.116,0.155
3.118,0.15
3.12,0.235
3.122,0.24
3.124,0.145
3.126,0.07
3.128,0.075
3.13,-0.02
3.132,-0.125
3.134,0.01
3.136,0.12
3.138,0.115
3.14,0.205
3.142,0.27
3.144,0.2
3.146,0.055
3.148,-0.035
3.15,-0.03
3.152,-0.02
3.154,0.065
3.156,0.13
3.158,0.2
3.16,0.165
3.162,0.21
3.164,0.15
3.166,-0.09
3.168,-0.07
3.17,-0.075
3.172,-0.175
3.174,-0.155
3.176,-0.02
3.178,0.115
3.18,0.16
3.182,0.2
3.184,0.24
3.186,0.305
3.188,0.32
3.19,0.425
3.192,0.64
3.194,0.895
3.196,1.135
3.198,1.27
3.2,1.61
3.202,1.655
3.204,1.63
3.206,1.54
3.208,1.22
3.21,1.17
3.212,1.22
3.214,1.23
3.216,1.045
3.218,0.875
3.22,0.785
3.222,0.595
3.224,0.37
3.226,0.22
3.228,-0.12
3.23,-0.12
3.232,0
3.234,0.08
3.236,0.095
3.238,0.225
3.24,0.285
3.242,0.235
3.244,0.175
3.246,0.055
3.248,-0.05
3.25,-0.015
3.252,0.005
3.254,0.025
3.256,0.115
3.258,0.11
3.26,0.16
3.262,0.1
3.264,0.17
3.266,0.06
3.268,-0.13
3.27,-0.115
3.272,-0.015
3.274,0.095
3.276,0.16
3.278,0.15
3.28,0.195
3.282,0.16
3.284,0.085
3.286,0.035
3.288,-0.1
3.29,-0.115
3.292,-0.11
3.294,-0.01
3.296,0.055
3.298,0.34
3.3,0.255
3.302,0.065
3.304,0.02
3.306,0.09
3.308,-0.015
3.31,-0.035
3.312,-0.01
3.314,0.035
3.316,0.15
3.318,0.28
3.32,0.295
3.322,0.235
3.324,0.09
3.326,0.08
3.328,-0.055
3.33,0.04
3.332,-0.04
3.334,-0.06
3.336,0.065
3.338,0.14
3.34,0.275
3.342,0.205
3.344,0.145
3.346,0.015
3.348,-0.01
3.35,0.01
3.352,0.015
3.354,0.105
3.356,0.195
3.358,0.325
3.36,0.295
3.362,0.245
3.364,0.085
3.366,0.035
3.368,-0.055
3.37,-0.13
3.372,0.035
3.374,0.15
3.376,0.2
3.378,0.15
3.38,0.255
3.382,0.175
3.384,0.04
3.386,0.155
3.388,0.07
3.39,0.05
3.392,0.115
3.394,0.23
3.396,0.28
3.398,0.405
3.4,0.305
3.402,0.195
3.404,-0.01
3.406,-0.045
3.408,-0.09
3.41,0.085
3.412,0.24
3.414,0.28
3.416,0.315
3.418,0.38
3.42,0.41
3.422,0.335
3.424,0.185
3.426,0.09
3.428,0.12
3.43,0.14
3.432,0.205
3.434,0.29
3.436,0.35
3.438,0.395
3.44,0.38
3.442,0.29
3.444,0.275
3.446,0.22
3.448,0.15
3.45,0.185
3.452,0.24
3.454,0.32
3.456,0.35
3.458,0.375
3.46,0.47
3.462,0.35
3.464,0.21
3.466,0.135
3.468,0.095
3.47,0.26
3.472,0.35
3.474,0.36
3.476,0.305
3.478,0.35
3.48,0.325
3.482,0.175
3.484,0.075
3.486,0.175
3.488,0.16
3.49,0.1
3.492,0.185
3.494,0.225
3.496,0.3
3.498,0.375
3.5,0.285
3.502,0.19
3.504,0.125
3.506,0.055
3.508,0.005
3.51,0.02
3.512,0.11
3.514,0.135
3.516,0.38
3.518,0.28
3.52,0.23
3.522,0.19
3.524,0.12
3.526,0.005
3.528,0.015
3.53,0.05
3.532,0.1
3.534,0.105
3.536,0.255
3.538,0.3
3.54,0.245
3.542,0.065
3.544,-0.055
3.546,-0.015
3.548,0.18
3.55,0.115
3.552,0.2
3.554,0.15
3.556,0.185
3.558,0.255
3.56,0.23
3.562,0.155
3.564,0.13
3.566,-0.065
3.568,0.02
3.57,0.065
3.572,0.095
3.574,0.15
3.576,0.305
3.578,0.275
3.58,0.21
3.582,0.115
3.584,0.035
3.586,-0.09
3.588,-0.05
3.59,0.04
3.592,0.165
3.594,0.23
3.596,0.27
3.598,0.285
3.6,0.2
3.602,0.205
3.604,0.185
3.606,-0.005
3.608,-0.005
3.61,0.03
3.612,0.12
3.614,0.165
3.616,0.285
3.618,0.24
3.62,0.135
3.622,0.075
3.624,0.05
3.626,-0.125
3.628,0.005
3.63,0.14
3.632,0.175
3.634,0.225
3.636,0.26
3.638,0.255
3.64,0.265
3.642,0.16
3.644,0.215
3.646,-0.05
3.648,-0.02
3.65,0.045
3.652,0.14
3.654,0.22
3.656,0.25
3.658,0.27
3.66,0.205
3.662,0.135
3.664,0.035
3.666,-0.14
3.668,-0.29
3.67,-0.05
3.672,0.245
3.674,0.25
3.676,0.26
3.678,0.315
3.68,0.245
3.682,0.03
3.684,0.125
3.686,-0.02
3.688,0.08
3.69,0.185
3.692,0.195
3.694,0.22
3.696,0.27
3.698,0.115
3.7,0.28
3.702,0.075
3.704,0.1
3.706,-0.015
3.708,0.01
3.71,0.13
3.712,0.195
3.714,0.205
3.716,0.325
3.718,0.265
3.72,0.185
3.722,0.125
3.724,0.045
3.726,-0.065
3.728,0
3.73,0.145
3.732,0.2
3.734,0.24
3.736,0.28
3.738,0.23
3.74,0.16
3.742,0.055
3.744,-0.015
3.746,-0.015
3.748,-0.035
3.75,0.105
3.752,0.16
3.754,0.195
3.756,0.295
3.758,0.3
3.76,0.19
3.762,0.085
3.764,-0.03
3.766,-0.03
3.768,0.025
3.77,0.165
3.772,0.29
3.774,0.305
3.776,0.06
3.778,0.255
3.78,0.25
3.782,0.075
3.784,-0.09
3.786,-0.02
3.788,0.08
3.79,0.085
3.792,0.085
3.794,0.19
3.796,0.2
3.798,0.185
3.8,0.185
3.802,0.175
3.804,0
3.806,-0.025
3.808,-0.02
3.81,0.01
3.812,0.075
3.814,0.37
3.816,0.285
3.818,0.145
3.82,0.12
3.822,0.135
3.824,0.005
3.826,-0.07
3.828,-0.03
3.83,0.14
3.832,0.17
3.834,0.33
3.836,0.3
3.838,0.25
3.84,0.195
3.842,0.155
3.844,-0.015
3.846,0.055
3.848,0.08
3.85,0.16
3.852,0.17
3.854,0.21
3.856,0.145
3.858,0.205
3.86,0.145
3.862,0.14
3.864,-0.035
3.866,-0.075
3.868,0.01
3.87,0.125
3.872,0.165
3.874,0.305
3.876,0.325
3.878,0.23
3.88,0.06
3.882,0.065
3.884,-0.045
3.886,0.045
3.888,0.08
3.89,0.16
3.892,0.155
3.894,0.255
3.896,0.285
3.898,0.185
3.9,0.17
3.902,0.115
3.904,-0.045
3.906,-0.015
3.908,0.035
3.91,0.11
3.912,0.18
3.914,0.25
3.916,0.275
3.918,0.23
3.92,0.085
3.922,0.155
3.924,-0.16
3.926,-0.07
3.928,-0.01
3.93,0.14
3.932,0.13
3.934,0.245
3.936,0.265
3.938,0.325
3.94,0.19
3.942,0.23
3.944,-0.06
3.946,-0.07
3.948,0.02
3.95,0.075
3.952,0.195
3.954,0.3
3.956,0.315
3.958,0.21
3.96,0.08
3.962,0.07
3.964,-0.025
3.966,-0.015
3.968,0.04
3.97,0.105
3.972,0.215
3.974,0.285
3.976,0.24
3.978,0.24
3.98,0.075
3.982,-0.02
3.984,-0.03
3.986,-0.035
3.988,0.065
3.99,0.15
3.992,0.28
3.994,0.27
3.996,0.08
3.998,0.105
4,0.26
4.002,0.105
4.004,0.005
4.006,-0.075
4.008,0.045
4.01,0.14
4.012,0.23
4.014,0.325
4.016,0.29
4.018,0.21
4.02,0.185
4.022,-0.02
4.024,-0.05
4.026,0.07
4.028,0.035
4.03,0.12
4.032,0.15
4.034,0.325
4.036,0.305
4.038,0.165
4.04,0.12
4.042,0.08
4.044,0.095
4.046,0.03
4.048,0.155
4.05,0.16
4.052,0.275
4.054,0.34
4.056,0.28
4.058,0.21
4.06,0.175
4.062,0.035
4.064,0.025
4.066,0.09
4.068,0.065
4.07,0.15
4.072,0.45
4.074,0.38
4.076,0.365
4.078,0.255
4.08,0.22
4.082,0.075
4.084,0.055
4.086,0.195
4.088,0.22
4.09,0.23
4.092,0.335
4.094,0.4
4.096,0.395
4.098,0.275
4.1,0.205
4.102,0.07
4.104,0.115
4.106,0.155
4.108,0.3
4.11,0.27
4.112,0.33
4.114,0.27
4.116,0.235
4.118,0.16
4.12,0.065
4.122,-0.145
4.124,-0.03
4.126,0.025
4.128,0.04
4.13,0.175
4.132,0.255
4.134,0.24
4.136,0.2
4.138,0.155
4.14,0.2
4.142,0.005
4.144,0
4.146,0.08
4.148,0.175
4.15,0.14
4.152,0.22
4.154,0.19
4.156,0.155
4.158,0.035
4.16,0.025
4.162,-0.025
4.164,0.06
4.166,0.035
4.168,0.08
4.17,0.135
4.172,0.22
4.174,0.195
4.176,0.1
4.178,0
4.18,-0.025
4.182,-0.19
4.184,-0.13
4.186,0.02
4.188,0.34
4.19,0.5
4.192,0.695
4.194,0.745
4.196,0.845
4.198,1.035
4.2,1.21
4.202,1.295
4.204,1.445
4.206,1.54
4.208,1.625
4.21,1.685
4.212,1.665
4.214,1.565
4.216,1.455
4.218,1.115
4.22,0.83
4.222,0.47
4.224,0.28
4.226,0.26
4.228,0.245
4.23,0.22
4.232,0.36
4.234,0.355
4.236,0.12
4.238,-0.055
4.24,0.095
4.242,0.015
4.244,0.045
4.246,0.06
4.248,0.125
4.25,0.18
4.252,0.31
4.254,0.27
4.256,0.165
4.258,0.105
4.26,0.04
4.262,-0.065
4.264,-0.105
4.266,0.03
4.268,0.085
4.27,0.185
4.272,0.265
4.274,0.3
4.276,0.29
4.278,0.105
4.28,-0.05
4.282,0.02
4.284,-0.065
4.286,-0.075
4.288,0.075
4.29,0.23
4.292,0.255
4.294,0.21
4.296,0.115
4.298,0.09
4.3,0.005
4.302,-0.045
4.304,-0.055
4.306,-0.025
4.308,0.18
4.31,0.195
4.312,0.295
4.314,0.225
4.316,0.16
4.318,0.15
4.32,0.045
4.322,0.025
4.324,0.005
4.326,0
4.328,0.135
4.33,0.25
4.332,0.235
4.334,0.175
4.336,0.14
4.338,0.065
4.34,-0.02
4.342,-0.02
4.344,0.035
4.346,0.125
4.348,0.265
4.35,0.3
4.352,0.2
4.354,0.175
4.356,0.165
4.358,0.03
4.36,-0.2
4.362,-0.005
4.364,0.095
4.366,0.105
4.368,0.18
4.37,0.245
4.372,0.22
4.374,0.235
4.376,0.14
4.378,0.19
4.38,0.04
4.382,0.03
4.384,0.035
4.386,0.085
4.388,0.185
4.39,0.3
4.392,0.305
4.394,0.125
4.396,0.19
4.398,0.16
4.4,0.1
4.402,0.055
4.404,0.02
4.406,0.19
4.408,0.23
4.41,0.35
4.412,0.32
4.414,0.31
4.416,0.19
4.418,0.155
4.42,0.07
4.422,0.1
4.424,0.1
4.426,0.26
4.428,0.36
4.43,0.335
4.432,0.345
4.434,0.315
4.436,0.27
4.438,0.18
4.44,0.04
4.442,0.145
4.444,0.225
4.446,0.26
4.448,0.335
4.45,0.46
4.452,0.385
4.454,0.285
4.456,0.295
4.458,0.265
4.46,0.2
4.462,0.14
4.464,0.26
4.466,0.275
4.468,0.345
4.47,0.495
4.472,0.405
4.474,0.355
4.476,0.3
4.478,0.24
4.48,0.065
4.482,0.04
4.484,0.135
4.486,0.2
4.488,0.355
4.49,0.4
4.492,0.38
4.494,0.3
4.496,0.215
4.498,0.11
4.5,-0.25
4.502,-0.04
4.504,0.255
4.506,0.25
4.508,0.265
4.51,0.35
4.512,0.28
4.514,0.175
4.516,0.215
4.518,0.135
4.52,-0.01
4.522,0.01
4.524,0.1
4.526,0.185
4.528,0.24
4.53,0.305
4.532,0.26
4.534,0.17
4.536,0.155
4.538,0.055
4.54,-0.035
4.542,-0.02
4.544,0.055
4.546,0.23
4.548,0.24
4.55,0.27
4.552,0.315
4.554,0.155
4.556,0.125
4.558,0.03
4.56,-0.04
4.562,-0.065
4.564,0.06
4.566,0.16
4.568,0.155
4.57,0.27
4.572,0.335
4.574,0.25
4.576,0.16
4.578,-0.01
4.58,0.03
4.582,-0.02
4.584,0.11
4.586,0.185
4.588,0.265
4.59,0.315
4.592,0.255
4.594,0.155
4.596,0.2
4.598,0.14
4.6,-0.005
4.602,0.03
4.604,0.075
4.606,0.2
4.608,0.315
4.61,0.28
4.612,0.285
4.614,0.245
4.616,0.12
4.618,0.06
4.62,0.015
4.622,0.06
4.624,0.14
4.626,0.19
4.628,0.18
4.63,0.285
4.632,0.33
4.634,0.21
4.636,0.145
4.638,-0.01
4.64,0.025
4.642,-0.055
4.644,0.02
4.646,0.235
4.648,0.3
4.65,0.22
4.652,0.32
4.654,0.255
4.656,0.215
4.658,0.055
4.66,-0.02
4.662,0.04
4.664,0.075
4.666,0.105
4.668,0.295
4.67,0.35
4.672,0.315
4.674,0.22
4.676,0.145
4.678,0.04
4.68,0.035
4.682,0.075
4.684,0.17
4.686,0.25
4.688,0.26
4.69,0.27
4.692,0.205
4.694,0.09
4.696,0.08
4.698,0.05
4.7,0.005
4.702,0.075
4.704,0.17
4.706,0.19
4.708,0.275
4.71,0.28
4.712,0.285
4.714,0.205
4.716,0.155
4.718,0.025
4.72,0.02
4.722,0.07
4.724,0.13
4.726,0.195
4.728,0.325
4.73,0.29
4.732,0.145
4.734,0.105
4.736,0.17
4.738,0.075
4.74,0.09
4.742,0.12
4.744,0.16
4.746,0.215
4.748,0.35
4.75,0.255
4.752,0.135
4.754,0.21
4.756,0.165
4.758,-0.01
4.76,0.05
4.762,0.09
4.764,0.14
4.766,0.2
4.768,0.255
4.77,0.215
4.772,0.125
4.774,0.235
4.776,0.135
4.778,-0.08
4.78,0.05
4.782,0.105
4.784,0.165
4.786,0.205
4.788,0.32
4.79,0.305
4.792,0.195
4.794,0.18
4.796,0.06
4.798,-0.125
4.8,-0.08
4.802,-0.07
4.804,0.145
4.806,0.27
4.808,0.36
4.81,0.34
4.812,0.22
4.814,0.15
4.816,0.125
4.818,0.055
4.82,0.11
4.822,-0.005
4.824,0.035
4.826,0.2
4.828,0.32
4.83,0.315
4.832,0.18
4.834,0.09
4.836,0.095
4.838,0.005
4.84,0.005
4.842,0.015
4.844,0.08
4.846,0.265
4.848,0.305
4.85,0.31
4.852,0.245
4.854,0.09
4.856,0.035
4.858,0.015
4.86,0.05
4.862,0.135
4.864,0.055
4.866,0.28
4.868,0.29
4.87,0.29
4.872,0.195
4.874,0.1
4.876,0.02
4.878,0.03
4.88,0.015
4.882,0.085
4.884,0.195
4.886,0.39
4.888,0.3
4.89,0.24
4.892,0.21
4.894,0.065
4.896,-0.02
4.898,-0.015
4.9,-0.06
4.902,-0.08
4.904,0.145
4.906,0.19
4.908,0.285
4.91,0.295
4.912,0.215
4.914,0.175
4.916,0.1
4.918,0.02
4.92,0.005
4.922,0.115
4.924,0.18
4.926,0.275
4.928,0.29
4.93,0.26
4.932,0.2
4.934,0.135
4.936,0.025
4.938,0.03
4.94,0.045
4.942,0.11
4.944,0.085
4.946,0.255
4.948,0.2
4.95,0.27
4.952,0.18
4.954,0.115
4.956,-0.02
4.958,-0.01
4.96,0.02
4.962,0.145
4.964,0.21
4.966,0.31
4.968,0.355
4.97,0.245
4.972,0.1
4.974,0.175
4.976,-0.055
4.978,0.03
4.98,0.05
4.982,0.17
4.984,0.24
4.986,0.315
4.988,0.26
4.99,0.235
4.992,0.22
4.994,0.26
4.996,0.06
4.998,0.145
5,0.15
5.002,0.245
5.004,0.3
5.006,0.435
5.008,0.39
5.01,0.31
5.012,0.175
5.014,0.155
5.016,-0.055
5.018,0
5.02,0.13
5.022,0.24
5.024,0.255
5.026,0.38
5.028,0.37
5.03,0.31
5.032,0.17
5.034,0.075
5.036,-0.03
5.038,-0.04
5.04,0.035
5.042,0.1
5.044,0.155
5.046,0.27
5.048,0.245
5.05,0.21
5.052,0.12
5.054,0.03
5.056,-0.03
5.058,-0.045
5.06,-0.025
5.062,0.125
5.064,0.135
5.066,0.24
5.068,0.245
5.07,0.17
5.072,0.17
5.074,0.045
5.076,-0.09
5.078,-0.005
5.08,0.035
5.082,0.065
5.084,0.135
5.086,0.22
5.088,0.17
5.09,0.11
5.092,0.03
5.094,0
5.096,-0.21
5.098,-0.125
5.1,-0.06
5.102,-0.06
5.104,0
5.106,0.185
5.108,0.195
5.11,0.21
5.112,0.11
5.114,0.28
5.116,0.365
5.118,0.62
5.12,0.85
5.122,1.03
5.124,1.225
5.126,1.635
5.128,1.8
5.13,1.65
5.132,1.5
5.134,1.31
5.136,1.145
5.138,1.13
5.14,1.085
5.142,0.895
5.144,0.65
5.146,0.495
5.148,0.395
5.15,0.18
5.152,0.06
5.154,-0.14
5.156,-0.125
5.158,-0.03
5.16,0.055
5.162,0.095
5.164,0.175
5.166,0.255
5.168,0.22
5.17,0.11
5.172,0.025
5.174,-0.075
5.176,-0.055
5.178,-0.01
5.18,0.05
5.182,0.16
5.184,0.135
5.186,0.075
5.188,0.185
5.19,0.145
5.192,0.095
5.194,-0.1
5.196,-0.065
5.198,0.025
5.2,0.01
5.202,0.09
5.204,0.22
5.206,0.23
5.208,0.215
5.21,0.085
5.212,0.005
5.214,-0.21
5.216,-0.1
5.218,0.035
5.22,0.065
5.222,0.12
5.224,0.26
5.226,0.29
5.228,0.245
5.23,0.155
5.232,0.065
5.234,-0.06
5.236,-0.03
5.238,-0.04
5.24,-0.005
5.242,0.065
5.244,0.25
5.246,0.225
5.248,0.21
5.25,0.145
5.252,0.065
5.254,-0.04
5.256,-0.05
5.258,-0.05
5.26,0.015
5.262,0.06
5.264,0.3
5.266,0.23
5.268,0.2
5.27,0.06
5.272,0.045
5.274,-0.03
5.276,-0.09
5.278,-0.055
5.28,0.065
5.282,0.245
5.284,0.265
5.286,0.225
5.288,0.25
5.29,0.18
5.292,0.085
5.294,-0.11
5.296,-0.135
5.298,0.125
5.3,0.16
5.302,0.19
5.304,0.375
5.306,0.265
5.308,0.215
5.31,0.125
5.312,0.1
5.314,-0.01
5.316,-0.02
5.318,0.07
5.32,0.155
5.322,0.24
5.324,0.305
5.326,0.245
5.328,0.22
5.33,0.17
5.332,0.135
5.334,-0.05
5.336,0.08
5.338,0.225
5.34,0.255
5.342,0.26
5.344,0.36
5.346,0.335
5.348,0.285
5.35,0.205
5.352,0.18
5.354,0.035
5.356,0.045
5.358,0.25
5.36,0.295
5.362,0.305
5.364,0.425
5.366,0.355
5.368,0.325
5.37,0.31
5.372,0.175
5.374,0.18
5.376,0.175
5.378,0.22
5.38,0.315
5.382,0.365
5.384,0.445
5.386,0.4
5.388,0.325
5.39,0.345
5.392,0.17
5.394,0.175
5.396,0.175
5.398,0.25
5.4,0.285
5.402,0.32
5.404,0.435
5.406,0.41
5.408,0.175
5.41,0.17
5.412,0.165
5.414,0.105
5.416,0.08
5.418,0.05
5.42,0.055
5.422,0.215
5.424,0.305
5.426,0.28
5.428,0.19
5.43,0.15
5.432,0.09
5.434,0.045
5.436,-0.08
5.438,0.03
5.44,0.1
5.442,0.3
5.444,0.26
5.446,0.175
5.448,0.055
5.45,0.19
5.452,0.095
5.454,0.01
5.456,0
5.458,0.09
5.46,0.115
5.462,0.145
5.464,0.2
5.466,0.27
5.468,0.165
5.47,0.105
5.472,0.03
5.474,0
5.476,0.075
5.478,0.06
5.48,0.155
5.482,0.245
5.484,0.27
5.486,0.18
5.488,0.07
5.49,0.05
5.492,0.03
5.494,0.035
5.496,0.015
5.498,0.06
5.5,0.08
5.502,0.115
5.504,0.275
5.506,0.395
5.508,0.17
5.51,-0.015
5.512,-0.07
5.514,-0.085
5.516,0.025
5.518,0.16
5.52,0.17
5.522,0.265
5.524,0.24
5.526,0.18
5.528,0.075
5.53,0
5.532,-0.12
5.534,0.105
5.536,0.095
5.538,0.095
5.54,0.19
5.542,0.265
5.544,0.225
5.546,0.175
5.548,0.14
5.55,0.04
5.552,-0.12
5.554,0.12
5.556,0.055
5.558,0.075
5.56,0.17
5.562,0.275
5.564,0.28
5.566,0.22
5.568,0.115
5.57,0.09
5.572,-0.01
5.574,-0.06
5.576,-0.005
5.578,0.13
5.58,0.225
5.582,0.295
5.584,0.24
5.586,0.21
5.588,0.115
5.59,0.12
5.592,-0.015
5.594,-0.065
5.596,0.05
5.598,0.115
5.6,0.175
5.602,0.36
5.604,0.3
5.606,0.205
5.608,0.11
5.61,0
5.612,0.04
5.614,0.075
5.616,0.075
5.618,0.175
5.62,0.135
5.622,0.295
5.624,0.325
5.626,0.255
5.628,0.14
5.63,0.115
5.632,-0.05
5.634,0.055
5.636,0.025
5.638,0.07
5.64,0.13
5.642,0.23
5.644,0.27
5.646,0.145
5.648,0.135
5.65,0.185
5.652,-0.005
5.654,0.06
5.656,0.05
5.658,0.115
5.66,0.185
5.662,0.24
5.664,0.235
5.666,0.14
5.668,0.13
5.67,0.125
5.672,0
5.674,-0.045
5.676,0.105
5.678,0.175
5.68,0.215
5.682,0.28
5.684,0.26
5.686,0.185
5.688,0.135
5.69,0.04
5.692,-0.05
5.694,-0.025
5.696,0.065
5.698,0.085
5.7,0.205
5.702,0.29
5.704,0.28
5.706,0.185
5.708,-0.065
5.71,0.015
5.712,-0.015
5.714,-0.02
5.716,0.05
5.718,0.095
5.72,0.16
5.722,0.22
5.724,0.21
5.726,0.11
5.728,0.085
5.73,0.09
5.732,0.02
5.734,-0.02
5.736,0.07
5.738,0.135
5.74,0.23
5.742,0.315
5.744,0.27
5.746,0.175
5.748,0.06
5.75,-0.045
5.752,-0.07
5.754,0.025
5.756,0.06
5.758,0.115
5.76,0.21
5.762,0.26
5.764,0.165
5.766,0.145
5.768,0.09
5.77,0
5.772,-0.005
5.774,0.025
5.776,0.08
5.778,0.135
5.78,0.205
5.782,0.23
5.784,0.26
5.786,0.15
5.788,0.03
5.79,-0.075
5.792,0.02
5.794,-0.015
5.796,0.14
5.798,0.19
5.8,0.25
5.802,0.27
5.804,0.17
5.806,0.015
5.808,-0.04
5.81,-0.04
5.812,-0.045
5.814,0.06
5.816,0.165
5.818,0.175
5.82,0.27
5.822,0.1
5.824,0.165
5.826,0.095
5.828,0.075
5.83,-0.085
5.832,-0.085
5.834,-0.045
5.836,0.085
5.838,0.145
5.84,0.22
5.842,0.245
5.844,0.195
5.846,0.09
5.848,0.025
5.85,-0.05
5.852,-0.055
5.854,-0.02
5.856,0.11
5.858,0.105
5.86,0.265
5.862,0.235
5.864,0.255
5.866,0.145
5.868,0.17
5.87,-0.085
5.872,-0.175
5.874,-0.07
5.876,0.045
5.878,0.1
5.88,0.2
5.882,0.18
5.884,0.16
5.886,0.02
5.888,0.05
5.89,-0.16
5.892,-0.185
5.894,0
5.896,0.195
5.898,0.17
5.9,0.27
5.902,0.27
5.904,0.22
5.906,0.125
5.908,0.125
5.91,0.09
5.912,0.025
5.914,-0.065
5.916,0.03
5.918,0.06
5.92,0.215
5.922,0.23
5.924,0.225
5.926,0.095
5.928,0.045
5.93,-0.005
5.932,-0.055
5.934,-0.02
5.936,0.11
5.938,0.24
5.94,0.335
5.942,0.375
5.944,0.32
5.946,0.195
5.948,0.085
5.95,0.03
5.952,0.03
5.954,0.195
5.956,0.255
5.958,0.1
5.96,0.005
5.962,0.24
5.964,0.26
5.966,0.18
5.968,0.115
5.97,-0.035
5.972,0
5.974,-0.05
5.976,0.045
5.978,0.21
5.98,0.225
5.982,0.185
5.984,0.12
5.986,0.04
5.988,-0.06
5.99,-0.115
5.992,-0.09
5.994,0.01
5.996,0.09
5.998,0.2
6,0.245
6.002,0.14
6.004,0.105
6.006,0.055
6.008,-0.055
6.01,-0.11
6.012,-0.12
6.014,-0.11
6.016,-0.015
6.018,0.015
6.02,-0.05
6.022,0.215
6.024,0.15
6.026,0.06
6.028,-0.06
6.03,-0.055
6.032,-0.115
6.034,-0.075
6.036,-0.055
6.038,0.02
6.04,0.105
6.042,0.055
6.044,-0.03
6.046,-0.105
6.048,-0.23
6.05,-0.135
6.052,0.05
6.054,0.235
6.056,0.51
6.058,0.695
6.06,0.825
6.062,1.11
6.064,1.305
6.066,1.405
6.068,1.425
6.07,1.44
6.072,1.4
6.074,1.345
6.076,1.35
6.078,1.405
6.08,1.285
6.082,1.01
6.084,0.535
6.086,0.45
6.088,0.28
6.09,0.23
6.092,0.07
6.094,0.08
6.096,0.11
6.098,0.265
6.1,0.19
6.102,0.2
6.104,0.16
6.106,0.2
6.108,0.015
6.11,-0.03
6.112,0.055
6.114,0.105
6.116,0.065
6.118,0.21
6.12,0.2
6.122,0.215
6.124,0.105
6.126,0.05
6.128,-0.095
6.13,-0.145
6.132,-0.095
6.134,0.015
6.136,-0.04
6.138,0.175
6.14,0.135
6.142,0.095
6.144,0.115
6.146,0.055
6.148,-0.09
6.15,-0.12
6.152,-0.035
6.154,0.04
6.156,0.055
6.158,0.16
6.16,0.01
6.162,0.09
6.164,0.045
6.166,0.045
6.168,-0.165
6.17,-0.14
6.172,-0.065
6.174,0.035
6.176,0.12
6.178,0.185
6.18,0.18
6.182,0.08
6.184,0.04
6.186,0
6.188,-0.105
6.19,-0.14
6.192,-0.065
6.194,-0.01
6.196,0.005
6.198,0.135
6.2,0.125
6.202,0.12
6.204,0.04
6.206,-0.045
6.208,-0.155
6.21,-0.12
6.212,-0.03
6.214,-0.055
6.216,0.11
6.218,0.18
6.22,0.19
6.222,0.16
6.224,0.015
6.226,-0.08
6.228,-0.065
6.23,-0.075
6.232,0
6.234,0.095
6.236,0.11
6.238,0.215
6.24,0.165
6.242,0.09
6.244,0.085
6.246,0.09
6.248,-0.14
6.25,-0.1
6.252,-0.05
6.254,0.07
6.256,0.1
6.258,0.14
6.26,0.195
6.262,0.155
6.264,0.055
6.266,0.04
6.268,-0.06
6.27,-0.085
6.272,-0.065
6.274,0.005
6.276,0.14
6.278,0.145
6.28,0.12
6.282,0.29
6.284,0.145
6.286,0
6.288,-0.025
6.29,-0.005
6.292,0.09
6.294,0.14
6.296,0.235
6.298,0.235
6.3,0.285
6.302,0.2
6.304,0.165
6.306,-0.01
6.308,-0.01
6.31,0.1
6.312,0.11
6.314,0.16
6.316,0.205
6.318,0.24
6.32,0.27
6.322,0.2
6.324,0.07
6.326,0.055
6.328,0.075
6.33,0.145
6.332,0.165
6.334,0.235
6.336,0.265
6.338,0.295
6.34,0.255
6.342,0.22
6.344,0.165
6.346,-0.015
6.348,-0.055
6.35,0.005
6.352,0.03
6.354,0.165
6.356,0.275
6.358,0.225
6.36,0.115
6.362,0.085
6.364,0.045
6.366,-0.085
6.368,-0.135
6.37,0
6.372,-0.04
6.374,0.115
6.376,0.19
6.378,0.165
6.38,-0.01
6.382,0.04
6.384,0.015
6.386,-0.15
6.388,-0.08
6.39,-0.065
6.392,-0.025
6.394,0.085
6.396,0.19
6.398,0.215
6.4,0.12
6.402,-0.05
6.404,-0.045
6.406,-0.09
6.408,-0.09
6.41,-0.145
6.412,-0.07
6.414,0.005
6.416,0.2
6.418,0.155
6.42,0.115
6.422,-0.025
6.424,-0.02
6.426,-0.145
6.428,-0.14
6.43,-0.08
6.432,0.005
6.434,0.03
6.436,0.15
6.438,0.135
6.44,0.13
6.442,0.045
6.444,-0.01
6.446,-0.18
6.448,-0.215
6.45,-0.015
6.452,-0.04
6.454,0.03
6.456,0.165
6.458,0.135
6.46,0.175
6.462,0.02
6.464,-0.055
6.466,-0.09
6.468,-0.135
6.47,-0.145
6.472,-0.055
6.474,0.02
6.476,0.11
6.478,0.08
6.48,0.15
6.482,0.055
6.484,-0.04
6.486,-0.105
6.488,-0.16
6.49,-0.115
6.492,0.07
6.494,0.03
6.496,0.125
6.498,0.16
6.5,0.125
6.502,-0.055
6.504,-0.06
6.506,-0.125
6.508,-0.19
6.51,-0.12
6.512,0.055
6.514,0.14
6.516,0.21
6.518,0.125
6.52,0.045
6.522,0.02
6.524,-0.04
6.526,-0.15
6.528,-0.09
6.53,-0.02
6.532,-0.005
6.534,0.09
6.536,0.125
6.538,0.175
6.54,0.125
6.542,0.06
6.544,-0.065
6.546,-0.16
6.548,-0.11
6.55,0.055
6.552,-0.04
6.554,0.04
6.556,0.165
6.558,0.24
6.56,0.075
6.562,-0.005
6.564,-0.06
6.566,-0.225
6.568,-0.1
6.57,-0.105
6.572,0.1
6.574,0.11
6.576,0.135
6.578,0.065
6.58,-0.015
6.582,0.095
6.584,-0.03
6.586,-0.21
6.588,-0.08
6.59,0
6.592,0.08
6.594,0.155
6.596,0.23
6.598,0.195
6.6,0.08
6.602,0.065
6.604,-0.085
6.606,-0.135
6.608,-0.155
6.61,-0.09
6.612,0.04
6.614,0.15
6.616,0.175
6.618,0.135
6.62,0.025
6.622,0.055
6.624,-0.095
6.626,-0.075
6.628,-0.125
6.63,-0.05
6.632,0.04
6.634,0.18
6.636,0.195
6.638,0.135
6.64,-0.02
6.642,0.005
6.644,-0.115
6.646,-0.13
6.648,-0.12
6.65,-0.135
6.652,-0.015
6.654,0.12
6.656,0.1
6.658,0.26
6.66,0.095
6.662,0.04
6.664,-0.21
6.666,-0.18
6.668,-0.055
6.67,0.005
6.672,0.09
6.674,0.17
6.676,0.155
6.678,0.125
6.68,0.05
6.682,-0.075
6.684,-0.23
6.686,-0.17
6.688,-0.015
6.69,0.075
6.692,0.005
6.694,0.19
6.696,0.135
6.698,0.155
6.7,0.05
6.702,-0.01
6.704,-0.14
6.706,-0.11
6.708,-0.1
6.71,-0.05
6.712,0.09
6.714,0.23
6.716,0.2
6.718,0.065
6.72,-0.015
6.722,-0.06
6.724,-0.08
6.726,-0.19
6.728,-0.05
6.73,0.075
6.732,0.135
6.734,0.185
6.736,0.085
6.738,0.115
6.74,0.12
6.742,0.03
6.744,-0.125
6.746,-0.09
6.748,-0.03
6.75,0.02
6.752,0.075
6.754,0.1
6.756,0.135
6.758,0.12
6.76,-0.035
6.762,-0.055
6.764,-0.04
6.766,-0.05
6.768,-0.03
6.77,0.06
6.772,0.105
6.774,0.175
6.776,0.19
6.778,0.115
6.78,0.055
6.782,0.005
6.784,-0.08
6.786,-0.055
6.788,-0.035
6.79,-0.195
6.792,-0.04
6.794,0.3
6.796,0.225
6.798,0.13
6.8,-0.02
6.802,0.04
6.804,-0.115
6.806,-0.055
6.808,-0.06
6.81,0
6.812,0.165
6.814,0.24
6.816,0.225
6.818,0.13
6.82,0.075
6.822,-0.05
6.824,-0.13
6.826,-0.14
6.828,-0.1
6.83,0.165
6.832,0.14
6.834,0.26
6.836,0.225
6.838,0.13
6.84,0.035
6.842,0.03
6.844,-0.06
6.846,-0.085
6.848,-0.025
6.85,0.045
6.852,0.13
6.854,0.1
6.856,0.19
6.858,0.195
6.86,0.125
6.862,0.18
6.864,0.065
6.866,0.07
6.868,0.1
6.87,0.235
6.872,0.315
6.874,0.31
6.876,0.32
6.878,0.195
6.88,0.095
6.882,-0.04
6.884,-0.095
6.886,-0.02
6.888,0.15
6.89,0.17
6.892,0.285
6.894,0.265
6.896,0.21
6.898,0.08
6.9,0.14
6.902,-0.06
6.904,-0.07
6.906,-0.105
6.908,-0.015
6.91,-0.015
6.912,0.075
6.914,0.07
6.916,0.13
6.918,0.13
6.92,0.035
6.922,-0.105
6.924,-0.1
6.926,-0.09
6.928,0.02
6.93,-0.06
6.932,0.095
6.934,0.04
6.936,0.12
6.938,0.095
6.94,0.02
6.942,-0.085
6.944,-0.105
6.946,-0.115
6.948,0.085
6.95,0.02
6.952,0.185
6.954,0.195
6.956,0.05
6.958,0
6.96,-0.085
6.962,-0.255
6.964,-0.24
6.966,-0.18
6.968,-0.075
6.97,-0.085
6.972,0.08
6.974,0.135
6.976,0.165
6.978,0.325
6.98,0.495
6.982,0.525
6.984,0.69
6.986,0.9
6.988,1.18
6.99,1.4
6.992,1.63
6.994,1.63
6.996,1.54
6.998,1.48
7,1.34
7.002,1.175
7.004,1.06
7.006,0.885
7.008,0.595
7.01,0.385
7.012,0.505
7.014,0.445
7.016,0.21
7.018,-0.08
7.02,-0.06
7.022,-0.12
7.024,-0.235
7.026,-0.03
7.028,0.065
7.03,0.05
7.032,0.17
7.034,0.2
7.036,0.1
7.038,0.05
7.04,0.025
7.042,-0.18
7.044,-0.09
7.046,-0.075
7.048,-0.09
7.05,0
7.052,0.165
7.054,0.11
7.056,0.145
7.058,0.03
7.06,-0.02
7.062,-0.12
7.064,-0.11
7.066,-0.16
7.068,-0.095
7.07,-0.065
7.072,0.245
7.074,0.275
7.076,0.155
7.078,-0.015
7.08,-0.095
7.082,-0.155
7.084,-0.14
7.086,-0.105
7.088,-0.03
7.09,0.05
7.092,0.16
7.094,0.2
7.096,0.135
7.098,-0.03
7.1,-0.005
7.102,-0.045
7.104,-0.09
7.106,-0.065
7.108,0.03
7.11,0.11
7.112,0.13
7.114,0.14
7.116,0.005
7.118,-0.06
7.12,-0.1
7.122,-0.185
7.124,0.005
7.126,0.055
7.128,-0.07
7.13,-0.025
7.132,0.175
7.134,0.12
7.136,0.15
7.138,0.095
7.14,-0.02
7.142,-0.05
7.144,-0.12
7.146,-0.07
7.148,0.165
7.15,0.15
7.152,0.18
7.154,0.17
7.156,0.075
7.158,0.035
7.16,-0.03
7.162,-0.065
7.164,-0.08
7.166,0.01
7.168,0.075
7.17,0.15
7.172,0.225
7.174,0.225
7.176,0.11
7.178,0.025
7.18,-0.015
7.182,-0.025
7.184,-0.02
7.186,-0.015
7.188,0.09
7.19,0.12
7.192,0.23
7.194,0.275
7.196,0.225
7.198,0.12
7.2,-0.02
7.202,-0.01
7.204,0.045
7.206,0.06
7.208,0.17
7.21,0.33
7.212,0.36
7.214,0.34
7.216,0.245
7.218,0.14
7.22,-0.045
7.222,-0.01
7.224,0.08
7.226,0.165
7.228,0.315
7.23,0.37
7.232,0.405
7.234,0.33
7.236,0.23
7.238,0.175
7.24,0.03
7.242,0.115
7.244,0.115
7.246,0.15
7.248,0.205
7.25,0.3
7.252,0.32
7.254,0.26
7.256,0.345
7.258,0.275
7.26,0.125
7.262,0.085
7.264,0.045
7.266,0.095
7.268,0.225
7.27,0.41
7.272,0.36
7.274,0.3
7.276,0.205
7.278,0.085
7.28,-0.035
7.282,0.09
7.284,0.11
7.286,0.105
7.288,0.11
7.29,0.225
7.292,0.21
7.294,0.18
7.296,0.07
7.298,0.07
7.3,-0.035
7.302,-0.045
7.304,-0.01
7.306,0.01
7.308,0.11
7.31,0.235
7.312,0.255
7.314,0.18
7.316,0.095
7.318,0.01
7.32,-0.08
7.322,-0.035
7.324,0.02
7.326,0.065
7.328,0.01
7.33,0.215
7.332,0.135
7.334,0.165
7.336,0.115
7.338,-0.01
7.34,-0.01
7.342,-0.14
7.344,0.005
7.346,0.105
7.348,0.15
7.35,0.15
7.352,0.255
7.354,0.17
7.356,0.005
7.358,0.01
7.36,-0.13
7.362,-0.17
7.364,-0.045
7.366,0.12
7.368,0.015
7.37,0.285
7.372,0.33
7.374,0.225
7.376,0.055
7.378,0.03
7.38,-0.085
7.382,-0.095
7.384,0.025
7.386,0.06
7.388,0.13
7.39,0.17
7.392,0.18
7.394,0.11
7.396,0.06
7.398,-0.015
7.4,-0.085
7.402,-0.01
7.404,-0.04
7.406,-0.005
7.408,0.14
7.41,0.28
7.412,0.27
7.414,0.195
7.416,0.055
7.418,0.015
7.42,-0.1
7.422,-0.015
7.424,0.04
7.426,0.14
7.428,0.19
7.43,0.235
7.432,0.25
7.434,0.135
7.436,0.045
7.438,0.025
7.44,-0.09
7.442,0
7.444,-0.025
7.446,0.03
7.448,0.095
7.45,0.24
7.452,0.225
7.454,0.16
7.456,0.01
7.458,-0.035
7.46,-0.005
7.462,-0.03
7.464,0.135
7.466,0.11
7.468,0.185
7.47,0.26
7.472,0.28
7.474,0.16
7.476,0.06
7.478,-0.005
7.48,-0.1
7.482,0.035
7.484,0.075
7.486,0.09
7.488,0.245
7.49,0.3
7.492,0.175
7.494,0.03
7.496,0.01
7.498,0.095
7.5,-0.015
7.502,0.045
7.504,0.115
7.506,0.11
7.508,0.2
7.51,0.305
7.512,0.24
7.514,0.05
7.516,-0.065
7.518,-0.105
7.52,0.045
7.522,0.09
7.524,0.03
7.526,0.095
7.528,0.29
7.53,0.265
7.532,0.225
7.534,0.17
7.536,0.025
7.538,0.02
7.54,-0.02
7.542,-0.035
7.544,0.12
7.546,0.08
7.548,0.11
7.55,0.26
7.552,0.185
7.554,0.155
7.556,0.09
7.558,-0.065
7.56,-0.08
7.562,0.07
7.564,0.085
7.566,0.175
7.568,0.29
7.57,0.27
7.572,0.065
7.574,0.09
7.576,0.035
7.578,0
7.58,0.015
7.582,0.02
7.584,0.06
7.586,0.01
7.588,0.32
7.59,0.245
7.592,0.13
7.594,0.005
7.596,-0.04
7.598,0.04
7.6,0.02
7.602,0.105
7.604,0.125
7.606,0.125
7.608,0.295
7.61,0.255
7.612,0.17
7.614,0.095
7.616,0.05
7.618,-0.015
7.62,0.05
7.622,-0.04
7.624,0.03
7.626,-0.005
7.628,0.19
7.63,0.31
7.632,0.18
7.634,0.15
7.636,0.025
7.638,0.015
7.64,-0.005
7.642,0.07
7.644,0.13
7.646,0.125
7.648,0.23
7.65,0.215
7.652,0.18
7.654,0.055
7.656,0
7.658,-0.025
7.66,-0.02
7.662,0.03
7.664,0.12
7.666,0.07
7.668,0.18
7.67,0.17
7.672,0.185
7.674,0.165
7.676,0.12
7.678,-0.11
7.68,-0.075
7.682,0.09
7.684,0.085
7.686,0.145
7.688,0.285
7.69,0.26
7.692,0.21
7.694,0.145
7.696,0.03
7.698,-0.035
7.7,0.03
7.702,-0.03
7.704,0.085
7.706,0.255
7.708,0.31
7.71,0.23
7.712,0.195
7.714,0.235
7.716,0.085
7.718,0.045
7.72,0.09
7.722,0.135
7.724,0.24
7.726,0.265
7.728,0.325
7.73,0.33
7.732,0.255
7.734,0.11
7.736,0.015
7.738,0.01
7.74,0.05
7.742,0.08
7.744,0.22
7.746,0.255
7.748,0.335
7.75,0.34
7.752,0.16
7.754,0.115
7.756,-0.09
7.758,-0.13
7.76,-0.06
7.762,0.04
7.764,0.04
7.766,0.21
7.768,0.225
7.77,0.185
7.772,0.09
7.774,0.105
7.776,-0.12
7.778,-0.165
7.78,-0.085
7.782,-0.025
7.784,0.005
7.786,0.18
7.788,0.14
7.79,0.23
7.792,0.145
7.794,0.075
7.796,-0.17
7.798,-0.145
7.8,-0.07
7.802,0.025
7.804,0.11
7.806,0.135
7.808,0.105
7.81,0.245
7.812,0.12
7.814,-0.01
7.816,-0.19
7.818,-0.235
7.82,-0.165
7.822,-0.155
7.824,-0.15
7.826,0.08
7.828,0.175
7.83,0.24
7.832,0.19
7.834,0.235
7.836,0.36
7.838,0.565
7.84,0.685
7.842,0.99
7.844,1.19
7.846,1.46
7.848,1.565
7.85,1.43
7.852,1.35
7.854,1.205
7.856,1.18
7.858,1.125
7.86,0.985
7.862,0.745
7.864,0.525
7.866,0.365
7.868,0.235
7.87,0.175
7.872,-0.025
7.874,-0.07
7.876,-0.215
7.878,-0.18
7.88,-0.125
7.882,-0.06
7.884,-0.015
7.886,0.095
7.888,0.09
7.89,0.01
7.892,0.07
7.894,0.12
7.896,-0.04
7.898,-0.115
7.9,-0.07
7.902,0.07
7.904,0.075
7.906,0.22
7.908,0.21
7.91,0.15
7.912,0.035
7.914,0.01
7.916,-0.13
7.918,-0.155
7.92,-0.09
7.922,0.02
7.924,0.085
7.926,0.155
7.928,0.145
7.93,0.17
7.932,0.165
7.934,0.03
7.936,-0.15
7.938,-0.11
7.94,-0.05
7.942,-0.05
7.944,0.06
7.946,0.17
7.948,0.275
7.95,0.245
7.952,0.145
7.954,0.04
7.956,-0.05
7.958,-0.065
7.96,-0.015
7.962,0.01
7.964,0.08
7.966,0.225
7.968,0.305
7.97,0.15
7.972,0.055
7.974,0.02
7.976,-0.07
7.978,-0.04
7.98,0.035
7.982,0.08
7.984,0.19
7.986,0.27
7.988,0.235
7.99,0.185
7.992,0.115
7.994,-0.02
7.996,-0.14
7.998,-0.025
8,0.005
8.002,0.155
8.004,0.195
8.006,0.315
8.008,0.25
8.01,0.25
8.012,0.085
8.014,0.035
8.016,-0.025
8.018,-0.04
8.02,0.035
8.022,0.14
8.024,0.265
8.026,0.34
8.028,0.29
8.03,0.2
8.032,0.115
8.034,-0.085
8.036,-0.02
8.038,0.16
8.04,0.21
8.042,0.245
8.044,0.275
8.046,0.4
8.048,0.28
8.05,0.23
8.052,0.13
8.054,0.025
8.056,0.135
8.058,0.195
8.06,0.21
8.062,0.265
8.064,0.325
8.066,0.38
8.068,0.31
8.07,0.315
8.072,0.2
8.074,0.165
8.076,0.12
8.078,0.165
8.08,0.29
8.082,0.295
8.084,0.41
8.086,0.465
8.088,0.285
8.09,0.45
8.092,0.39
8.094,0.205
8.096,0.21
8.098,0.2
8.1,0.375
8.102,0.365
8.104,0.495
8.106,0.48
8.108,0.47
8.11,0.355
8.112,0.34
8.114,0.18
8.116,0.145
8.118,0.25
8.12,0.28
8.122,0.27
8.124,0.39
8.126,0.445
8.128,0.415
8.13,0.26
8.132,0.215
8.134,0.015
8.136,0.04
8.138,0.05
8.14,0.17
8.142,0.285
8.144,0.335
8.146,0.36
8.148,0.255
8.15,0.13
8.152,0.11
8.154,0.02
8.156,0.06
8.158,0.1
8.16,0.115
8.162,0.15
8.164,0.25
8.166,0.205
8.168,0.17
8.17,0.13
8.172,0.105
8.174,0.02
8.176,0.035
8.178,0.07
8.18,0.18
8.182,0.18
8.184,0.32
8.186,0.3
8.188,0.185
8.19,0.1
8.192,0.1
8.194,-0.02
8.196,-0.02
8.198,0.055
8.2,0.16
8.202,0.13
8.204,0.295
8.206,0.345
8.208,0.17
8.21,0.115
8.212,0.09
8.214,-0.1
8.216,-0.105
8.218,0.045
8.22,0.18
8.222,0.14
8.224,0.195
8.226,0.245
8.228,0.27
8.23,0.19
8.232,0
8.234,-0.08
8.236,-0.105
8.238,0.12
8.24,0.205
8.242,0.16
8.244,0.315
8.246,0.3
8.248,0.19
8.25,0.065
8.252,0.035
8.254,-0.135
8.256,0.035
8.258,0.055
8.26,0.175
8.262,0.15
8.264,0.155
8.266,0.295
8.268,0.19
8.27,0.09
8.272,0.06
8.274,-0.07
8.276,0.02
8.278,0.07
8.28,0.19
8.282,0.2
8.284,0.22
8.286,0.225
8.288,0.07
8.29,0.065
8.292,-0.01
8.294,0.015
8.296,0.04
8.298,0.075
8.3,0.12
8.302,0.335
8.304,0.375
8.306,0.32
8.308,0.195
8.31,0.11
8.312,0.1
8.314,0.06
8.316,-0.05
8.318,0
8.32,0.195
8.322,0.29
8.324,0.285
8.326,0.255
8.328,0.175
8.33,0.125
8.332,0.025
8.334,0.065
8.336,0.035
8.338,0.09
8.34,0.16
8.342,0.155
8.344,0.22
8.346,0.355
8.348,0.245
8.35,0.165
8.352,0.015
8.354,-0.06
8.356,0.005
8.358,0.05
8.36,0.195
8.362,0.255
8.364,0.28
8.366,0.21
8.368,0.15
8.37,0.14
8.372,-0.015
8.374,0.01
8.376,0.005
8.378,0.18
8.38,0.215
8.382,0.3
8.384,0.3
8.386,0.205
8.388,0.17
8.39,0.095
8.392,0.03
8.394,0.045
8.396,0.015
8.398,0.015
8.4,0.035
8.402,0.325
8.404,0.25
8.406,0.165
8.408,0.14
8.41,0.085
8.412,0.01
8.414,-0.01
8.416,0.065
8.418,0.095
8.42,0.18
8.422,0.3
8.424,0.285
8.426,0.255
8.428,0.105
8.43,0.03
8.432,-0.11
8.434,-0.075
8.436,-0.02
8.438,0.075
8.44,0.225
8.442,0.31
8.444,0.35
8.446,0.285
8.448,0.195
8.45,0.115
8.452,-0.045
8.454,0.015
8.456,0.11
8.458,0.13
8.46,0.19
8.462,0.315
8.464,0.34
8.466,0.195
8.468,0.07
8.47,0.14
8.472,0.145
8.474,0.17
8.476,0.09
8.478,0.215
8.48,0.1
8.482,0.475
8.484,0.4
8.486,0.345
8.488,0.25
8.49,0.18
8.492,0.015
8.494,0.03
8.496,0.095
8.498,0.135
8.5,0.16
8.502,0.365
8.504,0.41
8.506,0.32
8.508,0.18
8.51,0.105
8.512,-0.035
8.514,-0.025
8.516,0.04
8.518,0.075
8.52,0.175
8.522,0.265
8.524,0.285
8.526,0.285
8.528,0.145
8.53,-0.01
8.532,-0.105
8.534,-0.03
8.536,0.04
8.538,0.085
8.54,0.13
8.542,0.33
8.544,0.29
8.546,0.09
8.548,-0.09
8.55,0.095
8.552,0.04
8.554,-0.005
8.556,0.045
8.558,0.11
8.56,0.045
8.562,0.26
8.564,0.3
8.566,0.13
8.568,0.045
8.57,0.04
8.572,-0.125
8.574,-0.045
8.576,-0.085
8.578,-0.035
8.58,-0.005
8.582,0.11
8.584,0.035
8.586,0.13
8.588,0.135
8.59,0.14
8.592,0.15
8.594,0.325
8.596,0.69
8.598,0.935
8.6,1.16
8.602,1.33
8.604,1.51
8.606,1.575
8.608,1.545
8.61,1.32
8.612,1.215
8.614,1.17
8.616,1.17
8.618,1.065
8.62,0.94
8.622,0.715
8.624,0.5
8.626,0.34
8.628,0.18
8.63,-0.02
8.632,-0.115
8.634,-0.12
8.636,-0.06
8.638,0.025
8.64,0.175
8.642,0.275
8.644,0.22
8.646,0.17
8.648,0.095
8.65,0.035
8.652,-0.02
8.654,-0.015
8.656,0
8.658,0.085
8.66,0.24
8.662,0.3
8.664,0.205
8.666,0.125
8.668,-0.01
8.67,-0.06
8.672,-0.01
8.674,0
8.676,0.115
8.678,0.08
8.68,0.22
8.682,0.225
8.684,0.17
8.686,0.16
8.688,0.14
8.69,-0.1
8.692,0.015
8.694,0.02
8.696,0.145
8.698,0.115
8.7,0.225
8.702,0.225
8.704,0.16
8.706,0.13
8.708,0.07
8.71,-0.065
8.712,0.015
8.714,0.07
8.716,0.085
8.718,0.12
8.72,0.26
8.722,0.235
8.724,0.245
8.726,0.205
8.728,0.03
8.73,-0.07
8.732,0.025
8.734,0.1
8.736,0.17
8.738,0.12
8.74,0.295
8.742,0.3
8.744,0.21
8.746,0.1
8.748,0.105
8.75,-0.045
8.752,-0.08
8.754,0.14
8.756,0.135
8.758,0.18
8.76,0.395
8.762,0.265
8.764,0.25
8.766,0.185
8.768,0.155
8.77,-0.035
8.772,0.015
8.774,0
8.776,0.185
8.778,0.205
8.78,0.285
8.782,0.35
8.784,0.29
8.786,0.245
8.788,0.185
8.79,0.035
8.792,0
8.794,0.05
8.796,0.24
8.798,0.21
8.8,0.295
8.802,0.33
8.804,0.355
8.806,0.285
8.808,0.225
8.81,0.17
8.812,0.105
8.814,0.105
8.816,0.265
8.818,0.305
8.82,0.445
8.822,0.35
8.824,0.345
8.826,0.28
8.828,0.26
8.83,0.07
8.832,0.265
8.834,0.275
8.836,0.305
8.838,0.32
8.84,0.445
8.842,0.515
8.844,0.375
8.846,0.405
8.848,0.28
8.85,0.105
8.852,0.205
8.854,0.265
8.856,0.405
8.858,0.46
8.86,0.535
8.862,0.53
8.864,0.4
8.866,0.335
8.868,0.27
8.87,0.165
8.872,0.13
8.874,0.245
8.876,0.345
8.878,0.46
8.88,0.57
8.882,0.46
8.884,0.4
8.886,0.29
8.888,0.08
8.89,0.125
8.892,0.13
8.894,0.12
8.896,0.19
8.898,0.31
8.9,0.37
8.902,0.39
8.904,0.275
8.906,0.23
8.908,0.08
8.91,0.025
8.912,0.07
8.914,0.12
8.916,0.285
8.918,0.27
8.92,0.33
8.922,0.255
8.924,0.305
8.926,0.22
8.928,0.035
8.93,0.125
8.932,0.045
8.934,0.14
8.936,0.225
8.938,0.285
8.94,0.28
8.942,0.21
8.944,0.275
8.946,0.275
8.948,0.045
8.95,0.095
8.952,0.075
8.954,0.145
8.956,0.27
8.958,0.36
8.96,0.265
8.962,0.265
8.964,0.25
8.966,0.195
8.968,0.01
8.97,-0.025
8.972,0.09
8.974,0.115
8.976,0.235
8.978,0.345
8.98,0.31
8.982,0.32
8.984,0.09
8.986,0.045
8.988,-0.175
8.99,-0.195
8.992,-0.24
8.994,-0.1
8.996,-0.07
8.998,0.085
9,0.035
9.002,0.085
9.004,0.08
9.006,0.065
9.008,-0.055
9.01,-0.11
9.012,-0.01
9.014,0.105
9.016,0.08
9.018,0.215
9.02,0.265
9.022,0.23
9.024,0.07
9.026,-0.01
9.028,-0.13
9.03,-0.03
9.032,0.025
9.034,0.195
9.036,0.12
9.038,0.295
9.04,0.365
9.042,0.285
9.044,0.185
9.046,0.14
9.048,0.02
9.05,-0.035
9.052,0.055
9.054,0.175
9.056,0.265
9.058,0.315
9.06,0.295
9.062,0.19
9.064,0.22
9.066,0.13
9.068,0.06
9.07,0.07
9.072,0.075
9.074,0
9.076,0.215
9.078,0.31
9.08,0.32
9.082,0.32
9.084,0.2
9.086,0.12
9.088,0
9.09,-0.005
9.092,0.125
9.094,0.23
9.096,0.27
9.098,0.28
9.1,0.425
9.102,0.325
9.104,0.235
9.106,0.14
9.108,0.035
9.11,0.095
9.112,0.165
9.114,0.29
9.116,0.265
9.118,0.32
9.12,0.295
9.122,0.27
9.124,0.215
9.126,0.17
9.128,0.075
9.13,0.04
9.132,0.155
9.134,0.21
9.136,0.24
9.138,0.265
9.14,0.295
9.142,0.21
9.144,0.2
9.146,0.19
9.148,0.07
9.15,0.095
9.152,0.18
9.154,0.21
9.156,0.31
9.158,0.405
9.16,0.3
9.162,0.235
9.164,0.23
9.166,0.155
9.168,0.07
9.17,0.045
9.172,0.185
9.174,0.17
9.176,0.28
9.178,0.345
9.18,0.37
9.182,0.33
9.184,0.185
9.186,0.11
9.188,0.085
9.19,0.045
9.192,0.08
9.194,0.195
9.196,0.35
9.198,0.37
9.2,0.25
9.202,0.22
9.204,0.295
9.206,0.21
9.208,0.085
9.21,0.1
9.212,0.175
9.214,0.225
9.216,0.3
9.218,0.43
9.22,0.375
9.222,0.265
9.224,0.255
9.226,0.115
9.228,0.095
9.23,0.11
9.232,0.18
9.234,0.245
9.236,0.4
9.238,0.44
9.24,0.37
9.242,0.305
9.244,0.255
9.246,0.05
9.248,0.11
9.25,0.18
9.252,0.26
9.254,0.24
9.256,0.365
9.258,0.425
9.26,0.475
9.262,0.415
9.264,0.36
9.266,0.185
9.268,0.195
9.27,0.31
9.272,0.4
9.274,0.38
9.276,0.505
9.278,0.45
9.28,0.38
9.282,0.35
9.284,0.195
9.286,0.165
9.288,0.205
9.29,0.245
9.292,0.35
9.294,0.385
9.296,0.455
9.298,0.545
9.3,0.44
9.302,0.265
9.304,0.255
9.306,0.11
9.308,0.075
9.31,0.23
9.312,0.18
9.314,0.26
9.316,0.43
9.318,0.405
9.32,0.34
9.322,0.285
9.324,0.22
9.326,0.09
9.328,0.03
9.33,0.125
9.332,0.265
9.334,0.27
9.336,0.455
9.338,0.41
9.34,0.32
9.342,0.25
9.344,0.155
9.346,0.06
9.348,-0.02
9.35,0.18
9.352,0.28
9.354,0.33
9.356,0.455
9.358,0.405
9.36,0.335
9.362,0.235
9.364,0.065
9.366,0.005
9.368,-0.015
9.37,0.065
9.372,0.205
9.374,0.2
9.376,0.29
9.378,0.49
9.38,0.625
9.382,0.595
9.384,0.715
9.386,0.82
9.388,0.92
9.39,1.19
9.392,1.41
9.394,1.7
9.396,1.81
9.398,1.97
9.4,1.795
9.402,1.55
9.404,1.55
9.406,1.305
9.408,1.125
9.41,0.92
9.412,0.765
9.414,0.68
9.416,0.745
9.418,0.685
9.42,0.395
9.422,0.345
9.424,0.255
9.426,0.155
9.428,0.155
9.43,0.2
9.432,0.325
9.434,0.4
9.436,0.5
9.438,0.4
9.44,0.25
9.442,0.315
9.444,0.31
9.446,0.105
9.448,0.095
9.45,0.195
9.452,0.275
9.454,0.335
9.456,0.465
9.458,0.4
9.46,0.36
9.462,0.335
9.464,0.225
9.466,0.175
9.468,0.225
9.47,0.235
9.472,0.245
9.474,0.3
9.476,0.46
9.478,0.35
9.48,0.41
9.482,0.325
9.484,0.125
9.486,0.105
9.488,0.18
9.49,0.33
9.492,0.365
9.494,0.465
9.496,0.53
9.498,0.455
9.5,0.415
9.502,0.33
9.504,0.18
9.506,0.225
9.508,0.235
9.51,0.32
9.512,0.405
9.514,0.48
9.516,0.405
9.518,0.43
9.52,0.33
9.522,0.32
9.524,0.155
9.526,0.21
9.528,0.21
9.53,0.25
9.532,0.395
9.534,0.555
9.536,0.6
9.538,0.49
9.54,0.33
9.542,0.37
9.544,0.255
9.546,0.275
9.548,0.285
9.55,0.26
9.552,0.415
9.554,0.51
9.556,0.49
9.558,0.49
9.56,0.395
9.562,0.28
9.564,0.4
9.566,0.41
9.568,0.31
9.57,0.405
9.572,0.44
9.574,0.55
9.576,0.515
9.578,0.55
9.58,0.49
9.582,0.375
9.584,0.245
9.586,0.27
9.588,0.34
9.59,0.39
9.592,0.485
9.594,0.645
9.596,0.675
9.598,0.595
9.6,0.505
9.602,0.35
9.604,0.405
9.606,0.4
9.608,0.295
9.61,0.38
9.612,0.51
9.614,0.67
9.616,0.76
9.618,0.69
9.62,0.565
9.622,0.56
9.624,0.385
9.626,0.385
9.628,0.49
9.63,0.58
9.632,0.59
9.634,0.78
9.636,0.83
9.638,0.685
9.64,0.585
9.642,0.53
9.644,0.385
9.646,0.415
9.648,0.63
9.65,0.6
9.652,0.67
9.654,0.795
9.656,0.75
9.658,0.69
9.66,0.575
9.662,0.59
9.664,0.475
9.666,0.365
9.668,0.43
9.67,0.58
9.672,0.67
9.674,0.825
9.676,0.765
9.678,0.625
9.68,0.465
9.682,0.515
9.684,0.425
9.686,0.42
9.688,0.435
9.69,0.475
9.692,0.46
9.694,0.745
9.696,0.715
9.698,0.605
9.7,0.505
9.702,0.395
9.704,0.285
9.706,0.37
9.708,0.46
9.71,0.58
9.712,0.6
9.714,0.67
9.716,0.63
9.718,0.535
9.72,0.405
9.722,0.43
9.724,0.345
9.726,0.325
9.728,0.42
9.73,0.48
9.732,0.54
9.734,0.7
9.736,0.665
9.738,0.65
9.74,0.495
9.742,0.35
9.744,0.27
9.746,0.265
9.748,0.5
9.75,0.57
9.752,0.66
9.754,0.705
9.756,0.615
9.758,0.56
9.76,0.47
9.762,0.415
9.764,0.3
9.766,0.35
9.768,0.47
9.77,0.525
9.772,0.64
9.774,0.675
9.776,0.66
9.778,0.56
9.78,0.415
9.782,0.415
9.784,0.35
9.786,0.44
9.788,0.465
9.79,0.485
9.792,0.58
9.794,0.67
9.796,0.64
9.798,0.5
9.8,0.51
9.802,0.28
9.804,0.35
9.806,0.47
9.808,0.475
9.81,0.545
9.812,0.665
9.814,0.66
9.816,0.565
9.818,0.525
9.82,0.47
9.822,0.37
9.824,0.4
9.826,0.44
9.828,0.455
9.83,0.51
9.832,0.565
9.834,0.625
9.836,0.53
9.838,0.48
9.84,0.495
9.842,0.385
9.844,0.405
9.846,0.395
9.848,0.535
9.85,0.535
9.852,0.625
9.854,0.68
9.856,0.625
9.858,0.545
9.86,0.52
9.862,0.335
9.864,0.325
9.866,0.395
9.868,0.425
9.87,0.48
9.872,0.615
9.874,0.67
9.876,0.655
9.878,0.6
9.88,0.51
9.882,0.365
9.884,0.35
9.886,0.47
9.888,0.48
9.89,0.57
9.892,0.605
9.894,0.625
9.896,0.605
9.898,0.465
9.9,0.45
9.902,0.305
9.904,0.365
9.906,0.435
9.908,0.45
9.91,0.55
9.912,0.64
9.914,0.655
9.916,0.63
9.918,0.545
9.92,0.475
9.922,0.36
9.924,0.265
9.926,0.365
9.928,0.44
9.93,0.485
9.932,0.705
9.934,0.71
9.936,0.59
9.938,0.435
9.94,0.53
9.942,0.375
9.944,0.34
9.946,0.4
9.948,0.42
9.95,0.555
9.952,0.7
9.954,0.67
9.956,0.58
9.958,0.535
9.96,0.39
9.962,0.265
9.964,0.38
9.966,0.395
9.968,0.45
9.97,0.46
9.972,0.605
9.974,0.57
9.976,0.515
9.978,0.545
9.98,0.305
9.982,0.435
9.984,0.4
9.986,0.525
9.988,0.545
9.99,0.545
9.992,0.645
9.994,0.63
9.996,0.535
9.998,0.415
