0,1.195
0.002,1.225
0.004,1.24
0.006,1.34
0.008,1.36
0.01,1.545
0.012,1.58
0.014,1.5
0.016,1.425
0.018,1.36
0.02,1.255
0.022,1.285
0.024,1.325
0.026,1.4
0.028,1.395
0.03,1.525
0.032,1.485
0.034,1.47
0.036,1.4
0.038,1.345
0.04,1.27
0.042,1.27
0.044,1.285
0.046,1.345
0.048,1.375
0.05,1.505
0.052,1.525
0.054,1.535
0.056,1.445
0.058,1.405
0.06,1.24
0.062,1.27
0.064,1.295
0.066,1.355
0.068,1.41
0.07,1.555
0.072,1.485
0.074,1.48
0.076,1.435
0.078,1.38
0.08,1.235
0.082,1.25
0.084,1.315
0.086,1.36
0.088,1.39
0.09,1.5
0.092,1.485
0.094,1.42
0.096,1.345
0.098,1.325
0.1,1.27
0.102,1.24
0.104,1.305
0.106,1.34
0.108,1.375
0.11,1.505
0.112,1.515
0.114,1.485
0.116,1.39
0.118,1.355
0.12,1.2
0.122,1.205
0.124,1.315
0.126,1.405
0.128,1.415
0.13,1.515
0.132,1.495
0.134,1.4
0.136,1.345
0.138,1.32
0.14,1.29
0.142,1.34
0.144,1.37
0.146,1.445
0.148,1.49
0.15,1.565
0.152,1.57
0.154,1.495
0.156,1.43
0.158,1.375
0.16,1.325
0.162,1.285
0.164,1.345
0.166,1.415
0.168,1.45
0.17,1.585
0.172,1.595
0.174,1.51
0.176,1.48
0.178,1.405
0.18,1.29
0.182,1.255
0.184,1.325
0.186,1.42
0.188,1.55
0.19,1.675
0.192,1.65
0.194,1.59
0.196,1.51
0.198,1.4
0.2,1.35
0.202,1.325
0.204,1.335
0.206,1.38
0.208,1.485
0.21,1.555
0.212,1.6
0.214,1.485
0.216,1.395
0.218,1.3
0.22,1.29
0.222,1.275
0.224,1.335
0.226,1.4
0.228,1.53
0.23,1.56
0.232,1.545
0.234,1.455
0.236,1.385
0.238,1.265
0.24,1.255
0.242,1.215
0.244,1.255
0.246,1.32
0.248,1.44
0.25,1.46
0.252,1.45
0.254,1.335
0.256,1.285
0.258,1.17
0.26,1.185
0.262,1.19
0.264,1.305
0.266,1.345
0.268,1.41
0.27,1.39
0.272,1.35
0.274,1.32
0.276,1.3
0.278,1.16
0.28,1.215
0.282,1.175
0.284,1.215
0.286,1.245
0.288,1.35
0.29,1.365
0.292,1.37
0.294,1.325
0.296,1.27
0.298,1.125
0.3,1.115
0.302,1.1
0.304,1.215
0.306,1.285
0.308,1.43
0.31,1.355
0.312,1.375
0.314,1.24
0.316,1.18
0.318,1.08
0.32,1.07
0.322,1.125
0.324,1.165
0.326,1.265
0.328,1.435
0.33,1.44
0.332,1.395
0.334,1.295
0.336,1.22
0.338,1.075
0.34,1.065
0.342,1.08
0.344,1.155
0.346,1.255
0.348,1.38
0.35,1.345
0.352,1.285
0.354,1.26
0.356,1.215
0.358,1.085
0.36,1.08
0.362,1.12
0.364,1.195
0.366,1.185
0.368,1.285
0.37,1.295
0.372,1.27
0.374,1.215
0.376,1.2
0.378,1.055
0.38,1.11
0.382,1.115
0.384,1.16
0.386,1.21
0.388,1.34
0.39,1.295
0.392,1.26
0.394,1.27
0.396,1.21
0.398,1.09
0.4,1.045
0.402,1.095
0.404,1.165
0.406,1.215
0.408,1.325
0.41,1.375
0.412,1.305
0.414,1.215
0.416,1.15
0.418,1.07
0.42,1.055
0.422,1.125
0.424,1.195
0.426,1.2
0.428,1.295
0.43,1.34
0.432,1.285
0.434,1.165
0.436,1.13
0.438,1.025
0.44,1.05
0.442,1.115
0.444,1.185
0.446,1.175
0.448,1.28
0.45,1.305
0.452,1.235
0.454,1.195
0.456,1.12
0.458,1.03
0.46,1.07
0.462,1.075
0.464,1.155
0.466,1.23
0.468,1.31
0.47,1.31
0.472,1.19
0.474,1.12
0.476,1.01
0.478,0.965
0.48,0.995
0.482,1.045
0.484,1.095
0.486,1.225
0.488,1.35
0.49,1.355
0.492,1.23
0.494,1.145
0.496,1.07
0.498,1.07
0.5,1.095
0.502,1.145
0.504,1.14
0.506,1.225
0.508,1.315
0.51,1.27
0.512,1.15
0.514,1.12
0.516,1.01
0.518,0.99
0.52,1.01
0.522,1.12
0.524,1.175
0.526,1.235
0.528,1.26
0.53,1.255
0.532,1.15
0.534,1.16
0.536,1.005
0.538,1.035
0.54,1.025
0.542,1.055
0.544,1.125
0.546,1.28
0.548,1.295
0.55,1.295
0.552,1.19
0.554,1.155
0.556,1.005
0.558,0.965
0.56,0.98
0.562,1.03
0.564,1.03
0.566,1.215
0.568,1.23
0.57,1.22
0.572,1.115
0.574,1.06
0.576,0.95
0.578,0.975
0.58,0.98
0.582,1.08
0.584,1.115
0.586,1.195
0.588,1.21
0.59,1.175
0.592,1.08
0.594,1.1
0.596,0.95
0.598,0.96
0.6,1.03
0.602,1.085
0.604,1.085
0.606,1.245
0.608,1.21
0.61,1.145
0.612,1.07
0.614,1.04
0.616,0.915
0.618,0.93
0.62,1.025
0.622,1.09
0.624,1.135
0.626,1.22
0.628,1.175
0.63,1.13
0.632,1.07
0.634,1.065
0.636,0.975
0.638,0.955
0.64,0.975
0.642,1.03
0.644,1.035
0.646,1.175
0.648,1.185
0.65,1.14
0.652,1.07
0.654,1.065
0.656,0.9
0.658,0.935
0.66,1
0.662,1.09
0.664,1.05
0.666,1.1
0.668,1.105
0.67,1.11
0.672,1.115
0.674,1.08
0.676,0.965
0.678,0.91
0.68,0.96
0.682,1.01
0.684,1.02
0.686,1.17
0.688,1.165
0.69,1.105
0.692,1.065
0.694,1.035
0.696,0.925
0.698,0.925
0.7,0.975
0.702,1.015
0.704,1.06
0.706,1.17
0.708,1.15
0.71,1.07
0.712,1.02
0.714,0.99
0.716,0.86
0.718,0.835
0.72,0.915
0.722,0.98
0.724,1.015
0.726,1.125
0.728,1.18
0.73,1.08
0.732,1.005
0.734,0.99
0.736,0.88
0.738,0.855
0.74,0.97
0.742,1.08
0.744,1.11
0.746,1.14
0.748,1.155
0.75,1.135
0.752,1.085
0.754,1.005
0.756,0.905
0.758,0.87
0.76,0.955
0.762,1.01
0.764,1.135
0.766,1.23
0.768,1.13
0.77,1.055
0.772,1.01
0.774,0.93
0.776,0.87
0.778,0.9
0.78,0.955
0.782,1.005
0.784,1.095
0.786,1.135
0.788,1.15
0.79,1.04
0.792,0.99
0.794,0.915
0.796,0.91
0.798,0.925
0.8,0.935
0.802,1.01
0.804,1.08
0.806,1.09
0.808,1.03
0.81,0.98
0.812,1.035
0.814,0.955
0.816,0.905
0.818,0.905
0.82,0.96
0.822,1
0.824,1.08
0.826,1.06
0.828,1.03
0.83,1.03
0.832,1.065
0.834,0.93
0.836,0.93
0.838,0.89
0.84,0.93
0.842,1.03
0.844,1.145
0.846,1.145
0.848,1.165
0.85,1.065
0.852,1.005
0.854,0.89
0.856,0.89
0.858,0.88
0.86,0.975
0.862,1.085
0.864,1.19
0.866,1.21
0.868,1.24
0.87,1.105
0.872,1.025
0.874,0.86
0.876,0.855
0.878,0.865
0.88,0.99
0.882,1.065
0.884,1.18
0.886,1.115
0.888,1.08
0.89,1.02
0.892,0.99
0.894,0.835
0.896,0.815
0.898,0.855
0.9,0.975
0.902,0.96
0.904,1.075
0.906,1.095
0.908,1.035
0.91,0.995
0.912,0.99
0.914,0.805
0.916,0.79
0.918,0.82
0.92,0.92
0.922,0.975
0.924,1.08
0.926,1.055
0.928,1.04
0.93,0.99
0.932,0.925
0.934,0.785
0.936,0.855
0.938,0.8
0.94,0.855
0.942,0.965
0.944,1.085
0.946,1.09
0.948,1.01
0.95,0.925
0.952,0.92
0.954,0.795
0.956,0.755
0.958,0.715
0.96,0.845
0.962,0.92
0.964,1.05
0.966,1.12
0.968,1.05
0.97,1
0.972,0.935
0.974,0.83
0.976,0.795
0.978,0.86
0.98,0.975
0.982,1.02
0.984,1.06
0.986,1.075
0.988,0.975
0.99,0.97
0.992,0.965
0.994,0.875
0.996,0.945
0.998,0.97
1,0.975
1.002,1.015
1.004,1.1
1.006,1.035
1.008,0.905
1.01,0.815
1.012,0.82
1.014,0.7
1.016,0.66
1.018,0.72
1.02,0.85
1.022,0.93
1.024,1.035
1.026,1.045
1.028,1.01
1.03,0.925
1.032,0.83
1.034,0.75
1.036,0.765
1.038,0.79
1.04,0.84
1.042,0.95
1.044,1.035
1.046,1.04
1.048,0.955
1.05,0.91
1.052,0.81
1.054,0.735
1.056,0.735
1.058,0.815
1.06,0.88
1.062,0.995
1.064,1.045
1.066,1.04
1.068,1.01
1.07,1
1.072,0.85
1.074,0.755
1.076,0.8
1.078,0.885
1.08,0.895
1.082,0.945
1.084,0.99
1.086,1.035
1.088,0.985
1.09,0.9
1.092,0.77
1.094,0.765
1.096,0.77
1.098,0.865
1.1,0.935
1.102,1.045
1.104,1.09
1.106,1.07
1.108,1.01
1.11,0.985
1.112,0.845
1.114,0.785
1.116,0.785
1.118,0.86
1.12,0.905
1.122,0.995
1.124,1.06
1.126,0.995
1.128,0.955
1.13,0.955
1.132,0.775
1.134,0.71
1.136,0.82
1.138,0.955
1.14,0.96
1.142,1.1
1.144,1.13
1.146,1.055
1.148,0.95
1.15,0.91
1.152,0.775
1.154,0.795
1.156,0.855
1.158,0.94
1.16,0.97
1.162,1.075
1.164,1.06
1.166,1.08
1.168,0.975
1.17,0.945
1.172,0.825
1.174,0.875
1.176,0.89
1.178,0.96
1.18,0.995
1.182,1.155
1.184,1.095
1.186,1.085
1.188,1.05
1.19,1.04
1.192,0.88
1.194,0.865
1.196,0.86
1.198,0.925
1.2,0.965
1.202,1.135
1.204,1.19
1.206,1.125
1.208,1.07
1.21,1.095
1.212,0.95
1.214,0.905
1.216,0.98
1.218,1.11
1.22,1.05
1.222,1.135
1.224,1.17
1.226,1.135
1.228,1.01
1.23,0.955
1.232,0.865
1.234,0.885
1.236,0.95
1.238,1.02
1.24,1.085
1.242,1.2
1.244,1.14
1.246,1.1
1.248,1.03
1.25,0.97
1.252,0.8
1.254,0.74
1.256,0.795
1.258,0.93
1.26,1.02
1.262,1.075
1.264,1.03
1.266,0.97
1.268,0.91
1.27,0.82
1.272,0.735
1.274,0.755
1.276,0.805
1.278,0.895
1.28,0.945
1.282,1.05
1.284,1.025
1.286,0.93
1.288,0.82
1.29,0.785
1.292,0.75
1.294,0.73
1.296,0.78
1.298,0.81
1.3,0.865
1.302,0.955
1.304,0.945
1.306,0.905
1.308,0.855
1.31,0.805
1.312,0.71
1.314,0.615
1.316,0.695
1.318,0.805
1.32,0.88
1.322,0.97
1.324,0.97
1.326,0.89
1.328,0.79
1.33,0.72
1.332,0.665
1.334,0.64
1.336,0.725
1.338,0.81
1.34,0.86
1.342,0.965
1.344,0.98
1.346,0.92
1.348,0.855
1.35,0.725
1.352,0.725
1.354,0.74
1.356,0.77
1.358,0.795
1.36,0.86
1.362,0.93
1.364,0.955
1.366,0.875
1.368,0.77
1.37,0.62
1.372,0.6
1.374,0.65
1.376,0.76
1.378,0.87
1.38,0.97
1.382,1.015
1.384,1.005
1.386,0.88
1.388,0.785
1.39,0.71
1.392,0.695
1.394,0.68
1.396,0.74
1.398,0.81
1.4,0.91
1.402,0.91
1.404,0.915
1.406,0.875
1.408,0.8
1.41,0.65
1.412,0.66
1.414,0.655
1.416,0.7
1.418,0.745
1.42,0.845
1.422,0.87
1.424,0.86
1.426,0.825
1.428,0.78
1.43,0.665
1.432,0.715
1.434,0.74
1.436,0.81
1.438,0.82
1.44,0.97
1.442,0.98
1.444,0.955
1.446,0.89
1.448,0.775
1.45,0.635
1.452,0.7
1.454,0.685
1.456,0.76
1.458,0.775
1.46,0.8
1.462,0.855
1.464,0.89
1.466,0.82
1.468,0.81
1.47,0.67
1.472,0.635
1.474,0.665
1.476,0.77
1.478,0.815
1.48,0.955
1.482,0.93
1.484,0.93
1.486,0.835
1.488,0.725
1.49,0.615
1.492,0.64
1.494,0.7
1.496,0.785
1.498,0.825
1.5,0.94
1.502,0.945
1.504,0.86
1.506,0.75
1.508,0.755
1.51,0.7
1.512,0.705
1.514,0.735
1.516,0.805
1.518,0.84
1.52,0.95
1.522,0.92
1.524,0.9
1.526,0.87
1.528,0.835
1.53,0.7
1.532,0.645
1.534,0.74
1.536,0.815
1.538,0.83
1.54,0.94
1.542,0.95
1.544,0.935
1.546,0.87
1.548,0.78
1.55,0.655
1.552,0.63
1.554,0.69
1.556,0.745
1.558,0.8
1.56,0.93
1.562,0.945
1.564,0.885
1.566,0.875
1.568,0.805
1.57,0.735
1.572,0.725
1.574,0.775
1.576,0.82
1.578,0.89
1.58,1.015
1.582,1.005
1.584,0.88
1.586,0.79
1.588,0.715
1.59,0.63
1.592,0.695
1.594,0.745
1.596,0.785
1.598,0.895
1.6,0.965
1.602,0.94
1.604,0.9
1.606,0.87
1.608,0.78
1.61,0.65
1.612,0.615
1.614,0.685
1.616,0.78
1.618,0.82
1.62,0.945
1.622,0.97
1.624,0.95
1.626,0.855
1.628,0.775
1.63,0.71
1.632,0.73
1.634,0.77
1.636,0.825
1.638,0.895
1.64,0.97
1.642,0.925
1.644,0.835
1.646,0.82
1.648,0.695
1.65,0.68
1.652,0.67
1.654,0.765
1.656,0.85
1.658,0.96
1.66,1.015
1.662,1.04
1.664,0.95
1.666,0.845
1.668,0.74
1.67,0.695
1.672,0.64
1.674,0.77
1.676,0.865
1.678,0.95
1.68,0.995
1.682,0.975
1.684,0.91
1.686,0.88
1.688,0.765
1.69,0.725
1.692,0.7
1.694,0.76
1.696,0.83
1.698,0.98
1.7,1.03
1.702,1.01
1.704,0.915
1.706,0.845
1.708,0.735
1.71,0.7
1.712,0.725
1.714,0.84
1.716,0.87
1.718,1
1.72,1.01
1.722,0.965
1.724,0.8
1.726,0.75
1.728,0.695
1.73,0.72
1.732,0.775
1.734,0.85
1.736,0.86
1.738,1
1.74,0.97
1.742,0.945
1.744,0.86
1.746,0.8
1.748,0.74
1.75,0.765
1.752,0.73
1.754,0.84
1.756,0.905
1.758,1.07
1.76,1.035
1.762,0.99
1.764,0.93
1.766,0.875
1.768,0.71
1.77,0.67
1.772,0.685
1.774,0.795
1.776,0.895
1.778,1.005
1.78,1.065
1.782,1.025
1.784,0.92
1.786,0.835
1.788,0.7
1.79,0.75
1.792,0.82
1.794,0.89
1.796,0.905
1.798,0.98
1.8,0.98
1.802,0.98
1.804,0.945
1.806,0.93
1.808,0.81
1.81,0.8
1.812,0.825
1.814,0.86
1.816,0.89
1.818,1.065
1.82,1.09
1.822,1.065
1.824,1.005
1.826,0.98
1.828,0.85
1.83,0.83
1.832,0.835
1.834,0.915
1.836,0.975
1.838,1.075
1.84,1.085
1.842,1.03
1.844,0.96
1.846,0.9
1.848,0.75
1.85,0.8
1.852,0.78
1.854,0.775
1.856,0.905
1.858,1.07
1.86,1.05
1.862,0.97
1.864,0.915
1.866,0.855
1.868,0.805
1.87,0.815
1.872,0.885
1.874,0.94
1.876,0.985
1.878,1.02
1.88,1.045
1.882,1.045
1.884,0.965
1.886,0.88
1.888,0.8
1.89,0.76
1.892,0.8
1.894,0.88
1.896,0.89
1.898,1.045
1.9,1.04
1.902,1
1.904,0.92
1.906,0.85
1.908,0.865
1.91,0.81
1.912,0.885
1.914,0.95
1.916,1.03
1.918,1.085
1.92,1.095
1.922,1.085
1.924,1.005
1.926,0.89
1.928,0.82
1.93,0.865
1.932,0.955
1.934,1.005
1.936,1.14
1.938,1.205
1.94,1.14
1.942,1.04
1.944,0.94
1.946,0.83
1.948,0.755
1.95,0.735
1.952,0.82
1.954,0.81
1.956,0.85
1.958,0.865
1.96,0.89
1.962,0.84
1.964,0.765
1.966,0.625
1.968,0.63
1.97,0.695
1.972,0.755
1.974,0.775
1.976,0.91
1.978,0.96
1.98,0.96
1.982,0.895
1.984,0.885
1.986,0.77
1.988,0.775
1.99,0.75
1.992,0.88
1.994,0.905
1.996,1.04
1.998,1.05
2,0.975
2.002,0.9
2.004,0.84
2.006,0.735
2.008,0.73
2.01,0.775
2.012,0.855
2.014,0.9
2.016,1.06
2.018,1.085
2.02,1.05
2.022,0.935
2.024,0.895
2.026,0.795
2.028,0.765
2.03,0.72
2.032,0.84
2.034,0.9
2.036,1.02
2.038,0.995
2.04,0.98
2.042,0.935
2.044,0.855
2.046,0.715
2.048,0.725
2.05,0.735
2.052,0.86
2.054,0.93
2.056,1.04
2.058,1.015
2.06,0.95
2.062,0.865
2.064,0.875
2.066,0.69
2.068,0.695
2.07,0.78
2.072,0.915
2.074,0.875
2.076,1.02
2.078,1.12
2.08,1.08
2.082,0.915
2.084,0.86
2.086,0.73
2.088,0.76
2.09,0.855
2.092,0.905
2.094,0.915
2.096,1.005
2.098,1.055
2.1,1.025
2.102,0.955
2.104,0.97
2.106,0.83
2.108,0.78
2.11,0.8
2.112,0.905
2.114,1.03
2.116,1.105
2.118,1.075
2.12,1.015
2.122,0.96
2.124,0.92
2.126,0.8
2.128,0.79
2.13,0.9
2.132,0.985
2.134,1.005
2.136,1.155
2.138,1.135
2.14,1.02
2.142,0.915
2.144,0.85
2.146,0.735
2.148,0.78
2.15,0.915
2.152,1.04
2.154,1.045
2.156,1.1
2.158,1.095
2.16,1.05
2.162,0.995
2.164,0.905
2.166,0.83
2.168,0.84
2.17,0.935
2.172,0.94
2.174,0.96
2.176,1.05
2.178,1.06
2.18,1.085
2.182,0.97
2.184,0.88
2.186,0.835
2.188,0.83
2.19,0.91
2.192,0.92
2.194,0.96
2.196,1.07
2.198,1.035
2.2,0.93
2.202,0.91
2.204,0.83
2.206,0.74
2.208,0.765
2.21,0.81
2.212,0.85
2.214,0.885
2.216,0.925
2.218,0.9
2.22,0.83
2.222,0.755
2.224,0.66
2.226,0.57
2.228,0.61
2.23,0.75
2.232,0.835
2.234,0.89
2.236,0.925
2.238,0.93
2.24,0.85
2.242,0.8
2.244,0.67
2.246,0.59
2.248,0.635
2.25,0.715
2.252,0.78
2.254,0.85
2.256,0.935
2.258,0.935
2.26,0.8
2.262,0.765
2.264,0.68
2.266,0.72
2.268,0.7
2.27,0.75
2.272,0.79
2.274,0.855
2.276,0.93
2.278,0.9
2.28,0.845
2.282,0.795
2.284,0.68
2.286,0.63
2.288,0.68
2.29,0.795
2.292,0.805
2.294,0.88
2.296,0.855
2.298,0.87
2.3,0.88
2.302,0.82
2.304,0.615
2.306,0.6
2.308,0.675
2.31,0.72
2.312,0.765
2.314,0.895
2.316,0.88
2.318,0.855
2.32,0.74
2.322,0.655
2.324,0.55
2.326,0.625
2.328,0.695
2.33,0.745
2.332,0.785
2.334,0.92
2.336,0.915
2.338,0.91
2.34,0.785
2.342,0.69
2.344,0.63
2.346,0.725
2.348,0.74
2.35,0.815
2.352,0.78
2.354,0.9
2.356,0.925
2.358,0.915
2.36,0.825
2.362,0.81
2.364,0.62
2.366,0.665
2.368,0.715
2.37,0.76
2.372,0.81
2.374,0.925
2.376,0.955
2.378,0.94
2.38,0.865
2.382,0.885
2.384,0.715
2.386,0.67
2.388,0.74
2.39,0.855
2.392,0.835
2.394,0.92
2.396,0.895
2.398,0.845
2.4,0.8
2.402,0.77
2.404,0.62
2.406,0.63
2.408,0.73
2.41,0.835
2.412,0.845
2.414,0.945
2.416,0.965
2.418,0.87
2.42,0.78
2.422,0.75
2.424,0.685
2.426,0.71
2.428,0.75
2.43,0.845
2.432,0.835
2.434,0.915
2.436,0.93
2.438,0.895
2.44,0.88
2.442,0.815
2.444,0.705
2.446,0.66
2.448,0.735
2.45,0.815
2.452,0.865
2.454,0.955
2.456,0.985
2.458,0.875
2.46,0.795
2.462,0.745
2.464,0.725
2.466,0.775
2.468,0.79
2.47,0.88
2.472,0.935
2.474,0.91
2.476,0.885
2.478,0.88
2.48,0.76
2.482,0.69
2.484,0.68
2.486,0.72
2.488,0.78
2.49,0.825
2.492,0.885
2.494,0.94
2.496,0.935
2.498,0.9
2.5,0.835
2.502,0.69
2.504,0.595
2.506,0.675
2.508,0.74
2.51,0.815
2.512,0.915
2.514,0.99
2.516,0.955
2.518,0.875
2.52,0.81
2.522,0.745
2.524,0.68
2.526,0.7
2.528,0.75
2.53,0.815
2.532,0.96
2.534,1.005
2.536,1.055
2.538,1.035
2.54,0.975
2.542,0.775
2.544,0.63
2.546,0.585
2.548,0.675
2.55,0.68
2.552,0.78
2.554,0.975
2.556,0.965
2.558,0.9
2.56,0.835
2.562,0.725
2.564,0.69
2.566,0.6
2.568,0.725
2.57,0.835
2.572,0.955
2.574,0.96
2.576,0.935
2.578,0.815
2.58,0.78
2.582,0.7
2.584,0.69
2.586,0.68
2.588,0.74
2.59,0.795
2.592,0.95
2.594,0.95
2.596,0.905
2.598,0.845
2.6,0.785
2.602,0.695
2.604,0.73
2.606,0.735
2.608,0.725
2.61,0.785
2.612,0.975
2.614,0.97
2.616,0.925
2.618,0.835
2.62,0.835
2.622,0.715
2.624,0.63
2.626,0.655
2.628,0.775
2.63,0.775
2.632,0.895
2.634,0.92
2.636,0.995
2.638,0.85
2.64,0.855
2.642,0.71
2.644,0.63
2.646,0.695
2.648,0.81
2.65,0.785
2.652,0.93
2.654,0.95
2.656,0.92
2.658,0.895
2.66,0.785
2.662,0.61
2.664,0.65
2.666,0.755
2.668,0.875
2.67,0.88
2.672,0.975
2.674,0.96
2.676,0.925
2.678,0.855
2.68,0.85
2.682,0.755
2.684,0.74
2.686,0.77
2.688,0.835
2.69,0.91
2.692,1.01
2.694,0.965
2.696,0.92
2.698,0.885
2.7,0.865
2.702,0.765
2.704,0.755
2.706,0.81
2.708,0.855
2.71,0.865
2.712,0.955
2.714,0.975
2.716,0.875
2.718,0.84
2.72,0.83
2.722,0.755
2.724,0.77
2.726,0.765
2.728,0.86
2.73,0.96
2.732,1.085
2.734,1.03
2.736,0.955
2.738,0.865
2.74,0.8
2.742,0.725
2.744,0.74
2.746,0.795
2.748,0.825
2.75,0.92
2.752,0.95
2.754,0.935
2.756,0.87
2.758,0.815
2.76,0.825
2.762,0.72
2.764,0.7
2.766,0.78
2.768,0.825
2.77,0.865
2.772,0.975
2.774,0.925
2.776,0.895
2.778,0.835
2.78,0.735
2.782,0.675
2.784,0.635
2.786,0.715
2.788,0.795
2.79,0.87
2.792,0.98
2.794,0.975
2.796,0.875
2.798,0.78
2.8,0.685
2.802,0.65
2.804,0.56
2.806,0.565
2.808,0.675
2.81,0.855
2.812,0.935
2.814,0.885
2.816,0.855
2.818,0.755
2.82,0.655
2.822,0.62
2.824,0.575
2.826,0.685
2.828,0.775
2.83,0.925
2.832,0.96
2.834,0.9
2.836,0.805
2.838,0.78
2.84,0.66
2.842,0.595
2.844,0.645
2.846,0.72
2.848,0.8
2.85,0.95
2.852,0.96
2.854,0.985
2.856,0.9
2.858,0.82
2.86,0.7
2.862,0.775
2.864,0.74
2.866,0.735
2.868,0.765
2.87,0.87
2.872,0.79
2.874,0.68
2.876,0.65
2.878,0.67
2.88,0.515
2.882,0.45
2.884,0.475
2.886,0.61
2.888,0.68
2.89,0.855
2.892,0.855
2.894,0.815
2.896,0.795
2.898,0.73
2.9,0.595
2.902,0.585
2.904,0.65
2.906,0.69
2.908,0.665
2.91,0.815
2.912,0.805
2.914,0.745
2.916,0.71
2.918,0.67
2.92,0.475
2.922,0.495
2.924,0.565
2.926,0.675
2.928,0.725
2.93,0.865
2.932,0.85
2.934,0.8
2.936,0.71
2.938,0.715
2.94,0.585
2.942,0.59
2.944,0.65
2.946,0.7
2.948,0.755
2.95,0.87
2.952,0.885
2.954,0.845
2.956,0.705
2.958,0.675
2.96,0.575
2.962,0.605
2.964,0.65
2.966,0.665
2.968,0.71
2.97,0.89
2.972,0.875
2.974,0.815
2.976,0.765
2.978,0.69
2.98,0.595
2.982,0.575
2.984,0.6
2.986,0.645
2.988,0.73
2.99,0.895
2.992,0.89
2.994,0.77
2.996,0.705
2.998,0.715
3,0.62
3.002,0.63
3.004,0.665
3.006,0.69
3.008,0.705
3.01,0.83
3.012,0.81
3.014,0.755
3.016,0.715
3.018,0.71
3.02,0.645
3.022,0.63
3.024,0.71
3.026,0.765
3.028,0.78
3.03,0.86
3.032,0.895
3.034,0.855
3.036,0.755
3.038,0.71
3.04,0.675
3.042,0.685
3.044,0.76
3.046,0.88
3.048,0.94
3.05,1.04
3.052,1.035
3.054,0.93
3.056,0.815
3.058,0.7
3.06,0.625
3.062,0.665
3.064,0.845
3.066,0.855
3.068,0.915
3.07,0.98
3.072,0.965
3.074,0.935
3.076,0.855
3.078,0.82
3.08,0.8
3.082,0.755
3.084,0.8
3.086,0.9
3.088,1.01
3.09,0.995
3.092,0.955
3.094,0.875
3.096,0.845
3.098,0.795
3.1,0.69
3.102,0.71
3.104,0.8
3.106,0.815
3.108,0.95
3.11,0.935
3.112,1
3.114,0.96
3.116,0.905
3.118,0.685
3.12,0.59
3.122,0.655
3.124,0.765
3.126,0.785
3.128,0.91
3.13,0.9
3.132,0.875
3.134,0.805
3.136,0.77
3.138,0.615
3.14,0.62
3.142,0.69
3.144,0.695
3.146,0.73
3.148,0.87
3.15,0.865
3.152,0.83
3.154,0.78
3.156,0.76
3.158,0.57
3.16,0.525
3.162,0.56
3.164,0.605
3.166,0.585
3.168,0.735
3.17,0.775
3.172,0.795
3.174,0.71
3.176,0.66
3.178,0.525
3.18,0.545
3.182,0.52
3.184,0.595
3.186,0.66
3.188,0.85
3.19,0.895
3.192,0.88
3.194,0.735
3.196,0.67
3.198,0.475
3.2,0.55
3.202,0.6
3.204,0.605
3.206,0.6
3.208,0.775
3.21,0.83
3.212,0.805
3.214,0.685
3.216,0.675
3.218,0.505
3.22,0.545
3.222,0.575
3.224,0.595
3.226,0.635
3.228,0.81
3.23,0.775
3.232,0.715
3.234,0.69
3.236,0.615
3.238,0.46
3.24,0.51
3.242,0.505
3.244,0.61
3.246,0.655
3.248,0.745
3.25,0.75
3.252,0.695
3.254,0.62
3.256,0.57
3.258,0.455
3.26,0.47
3.262,0.5
3.264,0.54
3.266,0.585
3.268,0.74
3.27,0.735
3.272,0.7
3.274,0.66
3.276,0.625
3.278,0.495
3.28,0.51
3.282,0.64
3.284,0.725
3.286,0.685
3.288,0.745
3.29,0.795
3.292,0.72
3.294,0.66
3.296,0.6
3.298,0.51
3.3,0.55
3.302,0.57
3.304,0.65
3.306,0.74
3.308,0.77
3.31,0.8
3.312,0.72
3.314,0.645
3.316,0.56
3.318,0.44
3.32,0.405
3.322,0.535
3.324,0.59
3.326,0.665
3.328,0.745
3.33,0.775
3.332,0.68
3.334,0.69
3.336,0.645
3.338,0.575
3.34,0.51
3.342,0.54
3.344,0.57
3.346,0.665
3.348,0.725
3.35,0.7
3.352,0.62
3.354,0.61
3.356,0.575
3.358,0.54
3.36,0.515
3.362,0.57
3.364,0.675
3.366,0.715
3.368,0.77
3.37,0.745
3.372,0.665
3.374,0.575
3.376,0.465
3.378,0.455
3.38,0.525
3.382,0.61
3.384,0.635
3.386,0.72
3.388,0.8
3.39,0.765
3.392,0.69
3.394,0.635
3.396,0.535
3.398,0.435
3.4,0.425
3.402,0.485
3.404,0.56
3.406,0.695
3.408,0.765
3.41,0.735
3.412,0.665
3.414,0.725
3.416,0.605
3.418,0.52
3.42,0.525
3.422,0.59
3.424,0.62
3.426,0.815
3.428,0.82
3.43,0.73
3.432,0.575
3.434,0.525
3.436,0.445
3.438,0.465
3.44,0.535
3.442,0.635
3.444,0.71
3.446,0.855
3.448,0.825
3.45,0.745
3.452,0.67
3.454,0.59
3.456,0.47
3.458,0.53
3.46,0.5
3.462,0.59
3.464,0.64
3.466,0.775
3.468,0.805
3.47,0.745
3.472,0.665
3.474,0.595
3.476,0.405
3.478,0.46
3.48,0.555
3.482,0.61
3.484,0.665
3.486,0.815
3.488,0.765
3.49,0.675
3.492,0.615
3.494,0.6
3.496,0.495
3.498,0.53
3.5,0.535
3.502,0.58
3.504,0.595
3.506,0.74
3.508,0.765
3.51,0.75
3.512,0.645
3.514,0.645
3.516,0.57
3.518,0.545
3.52,0.595
3.522,0.69
3.524,0.685
3.526,0.79
3.528,0.75
3.53,0.72
3.532,0.725
3.534,0.645
3.536,0.495
3.538,0.505
3.54,0.5
3.542,0.6
3.544,0.67
3.546,0.78
3.548,0.84
3.55,0.79
3.552,0.685
3.554,0.685
3.556,0.54
3.558,0.495
3.56,0.555
3.562,0.655
3.564,0.7
3.566,0.805
3.568,0.81
3.57,0.74
3.572,0.655
3.574,0.585
3.576,0.515
3.578,0.495
3.58,0.55
3.582,0.635
3.584,0.725
3.586,0.835
3.588,0.79
3.59,0.71
3.592,0.665
3.594,0.625
3.596,0.525
3.598,0.54
3.6,0.62
3.602,0.74
3.604,0.72
3.606,0.81
3.608,0.815
3.61,0.78
3.612,0.71
3.614,0.65
3.616,0.515
3.618,0.545
3.62,0.61
3.622,0.665
3.624,0.685
3.626,0.76
3.628,0.78
3.63,0.735
3.632,0.77
3.634,0.695
3.636,0.595
3.638,0.61
3.64,0.615
3.642,0.705
3.644,0.765
3.646,0.81
3.648,0.855
3.65,0.825
3.652,0.785
3.654,0.665
3.656,0.57
3.658,0.555
3.66,0.61
3.662,0.68
3.664,0.77
3.666,0.77
3.668,0.765
3.67,0.74
3.672,0.68
3.674,0.595
3.676,0.595
3.678,0.65
3.68,0.71
3.682,0.755
3.684,0.815
3.686,0.865
3.688,0.795
3.69,0.715
3.692,0.655
3.694,0.535
3.696,0.455
3.698,0.455
3.7,0.56
3.702,0.65
3.704,0.8
3.706,0.835
3.708,0.775
3.71,0.74
3.712,0.66
3.714,0.52
3.716,0.525
3.718,0.535
3.72,0.63
3.722,0.63
3.724,0.795
3.726,0.835
3.728,0.775
3.73,0.66
3.732,0.635
3.734,0.525
3.736,0.54
3.738,0.55
3.74,0.605
3.742,0.625
3.744,0.735
3.746,0.775
3.748,0.765
3.75,0.645
3.752,0.645
3.754,0.52
3.756,0.515
3.758,0.585
3.76,0.65
3.762,0.64
3.764,0.785
3.766,0.74
3.768,0.74
3.77,0.69
3.772,0.69
3.774,0.625
3.776,0.615
3.778,0.64
3.78,0.7
3.782,0.765
3.784,0.915
3.786,0.92
3.788,0.92
3.79,0.84
3.792,0.77
3.794,0.555
3.796,0.48
3.798,0.485
3.8,0.595
3.802,0.61
3.804,0.725
3.806,0.675
3.808,0.56
3.81,0.51
3.812,0.53
3.814,0.44
3.816,0.475
3.818,0.595
3.82,0.645
3.822,0.67
3.824,0.77
3.826,0.785
3.828,0.745
3.83,0.695
3.832,0.655
3.834,0.495
3.836,0.52
3.838,0.575
3.84,0.65
3.842,0.67
3.844,0.84
3.846,0.845
3.848,0.76
3.85,0.64
3.852,0.605
3.854,0.465
3.856,0.455
3.858,0.565
3.86,0.64
3.862,0.66
3.864,0.77
3.866,0.83
3.868,0.82
3.87,0.775
3.872,0.685
3.874,0.525
3.876,0.465
3.878,0.61
3.88,0.695
3.882,0.73
3.884,0.85
3.886,0.815
3.888,0.715
3.89,0.685
3.892,0.625
3.894,0.52
3.896,0.525
3.898,0.6
3.9,0.63
3.902,0.69
3.904,0.775
3.906,0.83
3.908,0.77
3.91,0.67
3.912,0.585
3.914,0.455
3.916,0.51
3.918,0.575
3.92,0.665
3.922,0.73
3.924,0.795
3.926,0.775
3.928,0.735
3.93,0.665
3.932,0.57
3.934,0.525
3.936,0.54
3.938,0.605
3.94,0.63
3.942,0.685
3.944,0.79
3.946,0.8
3.948,0.725
3.95,0.67
3.952,0.615
3.954,0.59
3.956,0.565
3.958,0.625
3.96,0.675
3.962,0.8
3.964,0.805
3.966,0.74
3.968,0.705
3.97,0.655
3.972,0.595
3.974,0.595
3.976,0.59
3.978,0.67
3.98,0.72
3.982,0.86
3.984,0.885
3.986,0.905
3.988,0.815
3.99,0.725
3.992,0.585
3.994,0.54
3.996,0.57
3.998,0.66
4,0.76
4.002,0.895
4.004,0.89
4.006,0.93
4.008,0.86
4.01,0.805
4.012,0.615
4.014,0.67
4.016,0.705
4.018,0.775
4.02,0.77
4.022,0.87
4.024,0.885
4.026,0.895
4.028,0.75
4.03,0.695
4.032,0.57
4.034,0.615
4.036,0.64
4.038,0.68
4.04,0.715
4.042,0.825
4.044,0.775
4.046,0.77
4.048,0.675
4.05,0.625
4.052,0.485
4.054,0.445
4.056,0.49
4.058,0.55
4.06,0.595
4.062,0.755
4.064,0.785
4.066,0.72
4.068,0.66
4.07,0.615
4.072,0.4
4.074,0.385
4.076,0.43
4.078,0.565
4.08,0.58
4.082,0.71
4.084,0.685
4.086,0.68
4.088,0.6
4.09,0.515
4.092,0.405
4.094,0.405
4.096,0.44
4.098,0.555
4.1,0.655
4.102,0.705
4.104,0.695
4.106,0.63
4.108,0.54
4.11,0.555
4.112,0.425
4.114,0.36
4.116,0.42
4.118,0.48
4.12,0.52
4.122,0.635
4.124,0.665
4.126,0.665
4.128,0.585
4.13,0.515
4.132,0.38
4.134,0.38
4.136,0.405
4.138,0.52
4.14,0.55
4.142,0.695
4.144,0.68
4.146,0.625
4.148,0.535
4.15,0.525
4.152,0.41
4.154,0.385
4.156,0.43
4.158,0.555
4.16,0.575
4.162,0.68
4.164,0.69
4.166,0.59
4.168,0.47
4.17,0.385
4.172,0.37
4.174,0.39
4.176,0.445
4.178,0.525
4.18,0.57
4.182,0.685
4.184,0.72
4.186,0.635
4.188,0.54
4.19,0.465
4.192,0.405
4.194,0.44
4.196,0.495
4.198,0.515
4.2,0.605
4.202,0.67
4.204,0.625
4.206,0.585
4.208,0.53
4.21,0.445
4.212,0.38
4.214,0.43
4.216,0.535
4.218,0.55
4.22,0.59
4.222,0.665
4.224,0.66
4.226,0.555
4.228,0.505
4.23,0.4
4.232,0.38
4.234,0.375
4.236,0.44
4.238,0.525
4.24,0.62
4.242,0.675
4.244,0.685
4.246,0.565
4.248,0.53
4.25,0.395
4.252,0.365
4.254,0.375
4.256,0.445
4.258,0.53
4.26,0.585
4.262,0.64
4.264,0.64
4.266,0.59
4.268,0.54
4.27,0.435
4.272,0.415
4.274,0.44
4.276,0.525
4.278,0.525
4.28,0.605
4.282,0.685
4.284,0.66
4.286,0.565
4.288,0.5
4.29,0.355
4.292,0.335
4.294,0.345
4.296,0.395
4.298,0.455
4.3,0.59
4.302,0.645
4.304,0.64
4.306,0.535
4.308,0.445
4.31,0.335
4.312,0.32
4.314,0.365
4.316,0.42
4.318,0.475
4.32,0.65
4.322,0.64
4.324,0.615
4.326,0.565
4.328,0.465
4.33,0.295
4.332,0.32
4.334,0.405
4.336,0.465
4.338,0.495
4.34,0.63
4.342,0.615
4.344,0.605
4.346,0.505
4.348,0.54
4.35,0.375
4.352,0.32
4.354,0.375
4.356,0.44
4.358,0.45
4.36,0.62
4.362,0.65
4.364,0.535
4.366,0.495
4.368,0.46
4.37,0.32
4.372,0.365
4.374,0.425
4.376,0.465
4.378,0.455
4.38,0.57
4.382,0.585
4.384,0.58
4.386,0.48
4.388,0.415
4.39,0.31
4.392,0.3
4.394,0.36
4.396,0.475
4.398,0.495
4.4,0.64
4.402,0.615
4.404,0.595
4.406,0.54
4.408,0.485
4.41,0.325
4.412,0.34
4.414,0.405
4.416,0.42
4.418,0.49
4.42,0.66
4.422,0.64
4.424,0.58
4.426,0.525
4.428,0.515
4.43,0.41
4.432,0.405
4.434,0.415
4.436,0.46
4.438,0.48
4.44,0.62
4.442,0.59
4.444,0.545
4.446,0.52
4.448,0.47
4.45,0.4
4.452,0.355
4.454,0.42
4.456,0.53
4.458,0.565
4.46,0.58
4.462,0.59
4.464,0.58
4.466,0.445
4.468,0.445
4.47,0.485
4.472,0.465
4.474,0.475
4.476,0.53
4.478,0.6
4.48,0.675
4.482,0.64
4.484,0.6
4.486,0.555
4.488,0.445
4.49,0.355
4.492,0.365
4.494,0.425
4.496,0.52
4.498,0.63
4.5,0.7
4.502,0.715
4.504,0.645
4.506,0.605
4.508,0.465
4.51,0.385
4.512,0.4
4.514,0.43
4.516,0.495
4.518,0.6
4.52,0.66
4.522,0.645
4.524,0.53
4.526,0.48
4.528,0.43
4.53,0.425
4.532,0.425
4.534,0.495
4.536,0.53
4.538,0.63
4.54,0.71
4.542,0.685
4.544,0.58
4.546,0.62
4.548,0.455
4.55,0.375
4.552,0.395
4.554,0.465
4.556,0.58
4.558,0.695
4.56,0.73
4.562,0.69
4.564,0.57
4.566,0.54
4.568,0.45
4.57,0.4
4.572,0.4
4.574,0.455
4.576,0.515
4.578,0.625
4.58,0.62
4.582,0.6
4.584,0.535
4.586,0.48
4.588,0.355
4.59,0.35
4.592,0.37
4.594,0.49
4.596,0.55
4.598,0.655
4.6,0.6
4.602,0.54
4.604,0.455
4.606,0.445
4.608,0.335
4.61,0.36
4.612,0.335
4.614,0.43
4.616,0.46
4.618,0.57
4.62,0.64
4.622,0.615
4.624,0.525
4.626,0.46
4.628,0.33
4.63,0.335
4.632,0.345
4.634,0.455
4.636,0.46
4.638,0.54
4.64,0.585
4.642,0.605
4.644,0.59
4.646,0.575
4.648,0.4
4.65,0.375
4.652,0.41
4.654,0.535
4.656,0.6
4.658,0.735
4.66,0.7
4.662,0.575
4.664,0.495
4.666,0.545
4.668,0.485
4.67,0.465
4.672,0.535
4.674,0.6
4.676,0.555
4.678,0.665
4.68,0.7
4.682,0.55
4.684,0.385
4.686,0.365
4.688,0.26
4.69,0.21
4.692,0.3
4.694,0.39
4.696,0.44
4.698,0.59
4.7,0.645
4.702,0.535
4.704,0.38
4.706,0.395
4.708,0.355
4.71,0.31
4.712,0.35
4.714,0.5
4.716,0.59
4.718,0.71
4.72,0.695
4.722,0.645
4.724,0.545
4.726,0.51
4.728,0.38
4.73,0.335
4.732,0.39
4.734,0.54
4.736,0.62
4.738,0.695
4.74,0.7
4.742,0.615
4.744,0.485
4.746,0.445
4.748,0.43
4.75,0.45
4.752,0.49
4.754,0.555
4.756,0.625
4.758,0.71
4.76,0.73
4.762,0.69
4.764,0.595
4.766,0.555
4.768,0.465
4.77,0.445
4.772,0.48
4.774,0.495
4.776,0.555
4.778,0.715
4.78,0.74
4.782,0.67
4.784,0.585
4.786,0.54
4.788,0.5
4.79,0.435
4.792,0.48
4.794,0.545
4.796,0.645
4.798,0.705
4.8,0.675
4.802,0.62
4.804,0.56
4.806,0.5
4.808,0.465
4.81,0.47
4.812,0.56
4.814,0.62
4.816,0.665
4.818,0.73
4.82,0.695
4.822,0.62
4.824,0.66
4.826,0.585
4.828,0.515
4.83,0.51
4.832,0.57
4.834,0.635
4.836,0.68
4.838,0.725
4.84,0.735
4.842,0.7
4.844,0.685
4.846,0.58
4.848,0.52
4.85,0.545
4.852,0.61
4.854,0.65
4.856,0.725
4.858,0.805
4.86,0.82
4.862,0.735
4.864,0.77
4.866,0.67
4.868,0.59
4.87,0.56
4.872,0.635
4.874,0.705
4.876,0.85
4.878,0.87
4.88,0.88
4.882,0.78
4.884,0.74
4.886,0.62
4.888,0.585
4.89,0.585
4.892,0.645
4.894,0.65
4.896,0.78
4.898,0.785
4.9,0.865
4.902,0.82
4.904,0.775
4.906,0.675
4.908,0.61
4.91,0.58
4.912,0.695
4.914,0.7
4.916,0.86
4.918,0.905
4.92,0.855
4.922,0.755
4.924,0.695
4.926,0.585
4.928,0.54
4.93,0.565
4.932,0.64
4.934,0.67
4.936,0.735
4.938,0.765
4.94,0.785
4.942,0.72
4.944,0.615
4.946,0.455
4.948,0.56
4.95,0.625
4.952,0.65
4.954,0.625
4.956,0.76
4.958,0.79
4.96,0.745
4.962,0.655
4.964,0.595
4.966,0.52
4.968,0.505
4.97,0.53
4.972,0.655
4.974,0.665
4.976,0.765
4.978,0.785
4.98,0.715
4.982,0.62
4.984,0.615
4.986,0.53
4.988,0.545
4.99,0.605
4.992,0.71
4.994,0.765
4.996,0.855
4.998,0.84
5,0.785
5.002,0.73
5.004,0.685
5.006,0.59
5.008,0.535
5.01,0.59
5.012,0.685
5.014,0.725
5.016,0.87
5.018,0.82
5.02,0.76
5.022,0.68
5.024,0.685
5.026,0.555
5.028,0.565
5.03,0.705
5.032,0.8
5.034,0.79
5.036,0.88
5.038,0.92
5.04,0.85
5.042,0.735
5.044,0.65
5.046,0.56
5.048,0.56
5.05,0.61
5.052,0.69
5.054,0.8
5.056,0.895
5.058,0.915
5.06,0.855
5.062,0.8
5.064,0.71
5.066,0.64
5.068,0.625
5.07,0.71
5.072,0.76
5.074,0.795
5.076,0.885
5.078,0.86
5.08,0.805
5.082,0.78
5.084,0.71
5.086,0.65
5.088,0.615
5.09,0.685
5.092,0.72
5.094,0.82
5.096,0.89
5.098,0.865
5.1,0.785
5.102,0.765
5.104,0.665
5.106,0.635
5.108,0.665
5.11,0.735
5.112,0.75
5.114,0.83
5.116,0.87
5.118,0.865
5.12,0.78
5.122,0.745
5.124,0.62
5.126,0.64
5.128,0.695
5.13,0.76
5.132,0.76
5.134,0.865
5.136,0.9
5.138,0.905
5.14,0.83
5.142,0.755
5.144,0.655
5.146,0.675
5.148,0.69
5.15,0.755
5.152,0.77
5.154,0.82
5.156,0.83
5.158,0.89
5.16,0.85
5.162,0.765
5.164,0.625
5.166,0.61
5.168,0.655
5.17,0.735
5.172,0.76
5.174,0.915
5.176,0.97
5.178,0.895
5.18,0.86
5.182,0.755
5.184,0.54
5.186,0.55
5.188,0.63
5.19,0.77
5.192,0.815
5.194,0.89
5.196,0.875
5.198,0.86
5.2,0.85
5.202,0.725
5.204,0.53
5.206,0.61
5.208,0.68
5.21,0.765
5.212,0.835
5.214,0.965
5.216,0.93
5.218,0.9
5.22,0.78
5.222,0.8
5.224,0.615
5.226,0.635
5.228,0.675
5.23,0.725
5.232,0.79
5.234,0.945
5.236,0.93
5.238,0.88
5.24,0.765
5.242,0.735
5.244,0.655
5.246,0.685
5.248,0.685
5.25,0.765
5.252,0.77
5.254,0.915
5.256,0.925
5.258,0.905
5.26,0.845
5.262,0.795
5.264,0.635
5.266,0.63
5.268,0.69
5.27,0.73
5.272,0.78
5.274,0.96
5.276,0.92
5.278,0.88
5.28,0.78
5.282,0.685
5.284,0.58
5.286,0.575
5.288,0.67
5.29,0.745
5.292,0.78
5.294,0.895
5.296,0.955
5.298,0.915
5.3,0.815
5.302,0.715
5.304,0.66
5.306,0.68
5.308,0.715
5.31,0.795
5.312,0.895
5.314,0.935
5.316,0.975
5.318,0.91
5.32,0.855
5.322,0.77
5.324,0.615
5.326,0.65
5.328,0.79
5.33,0.845
5.332,0.95
5.334,1.03
5.336,1.015
5.338,0.955
5.34,0.875
5.342,0.795
5.344,0.69
5.346,0.705
5.348,0.75
5.35,0.795
5.352,0.88
5.354,0.965
5.356,0.95
5.358,0.875
5.36,0.825
5.362,0.75
5.364,0.675
5.366,0.705
5.368,0.765
5.37,0.79
5.372,0.83
5.374,0.9
5.376,0.935
5.378,0.875
5.38,0.815
5.382,0.685
5.384,0.535
5.386,0.595
5.388,0.73
5.39,0.825
5.392,0.92
5.394,0.955
5.396,0.89
5.398,0.885
5.4,0.83
5.402,0.72
5.404,0.665
5.406,0.62
5.408,0.72
5.41,0.835
5.412,0.955
5.414,0.995
5.416,0.93
5.418,0.83
5.42,0.77
5.422,0.655
5.424,0.665
5.426,0.7
5.428,0.745
5.43,0.765
5.432,0.87
5.434,0.91
5.436,0.935
5.438,0.825
5.44,0.81
5.442,0.71
5.444,0.715
5.446,0.75
5.448,0.84
5.45,0.87
5.452,0.95
5.454,0.94
5.456,0.985
5.458,0.92
5.46,0.86
5.462,0.74
5.464,0.825
5.466,0.89
5.468,0.96
5.47,0.92
5.472,0.95
5.474,0.85
5.476,0.735
5.478,0.705
5.48,0.745
5.482,0.605
5.484,0.555
5.486,0.545
5.488,0.635
5.49,0.665
5.492,0.84
5.494,0.88
5.496,0.84
5.498,0.76
5.5,0.775
5.502,0.68
5.504,0.645
5.506,0.695
5.508,0.82
5.51,0.835
5.512,0.985
5.514,1.01
5.516,0.935
5.518,0.82
5.52,0.75
5.522,0.615
5.524,0.65
5.526,0.685
5.528,0.765
5.53,0.8
5.532,0.905
5.534,0.9
5.536,0.89
5.538,0.81
5.54,0.79
5.542,0.745
5.544,0.725
5.546,0.785
5.548,0.86
5.55,0.845
5.552,0.96
5.554,0.97
5.556,0.945
5.558,0.82
5.56,0.71
5.562,0.62
5.564,0.665
5.566,0.715
5.568,0.795
5.57,0.845
5.572,0.975
5.574,0.97
5.576,0.925
5.578,0.815
5.58,0.75
5.582,0.685
5.584,0.71
5.586,0.77
5.588,0.845
5.59,0.93
5.592,1.05
5.594,1.035
5.596,0.95
5.598,0.915
5.6,0.85
5.602,0.77
5.604,0.77
5.606,0.835
5.608,0.88
5.61,0.915
5.612,0.955
5.614,1.01
5.616,0.97
5.618,0.905
5.62,0.845
5.622,0.76
5.624,0.8
5.626,0.865
5.628,0.915
5.63,0.98
5.632,1.105
5.634,1.115
5.636,1.045
5.638,0.9
5.64,0.865
5.642,0.77
5.644,0.775
5.646,0.855
5.648,0.96
5.65,1.04
5.652,1.12
5.654,1.1
5.656,1.02
5.658,0.935
5.66,0.89
5.662,0.87
5.664,0.9
5.666,0.915
5.668,0.99
5.67,1.07
5.672,1.145
5.674,1.125
5.676,1.065
5.678,1.015
5.68,0.93
5.682,0.865
5.684,0.94
5.686,1.035
5.688,1.085
5.69,1.25
5.692,1.225
5.694,1.16
5.696,1.08
5.698,1.07
5.7,0.97
5.702,0.92
5.704,0.87
5.706,0.965
5.708,1.01
5.71,1.12
5.712,1.11
5.714,1.09
5.716,1.04
5.718,0.95
5.72,0.825
5.722,0.86
5.724,0.835
5.726,0.89
5.728,0.95
5.73,1.07
5.732,1.105
5.734,1.01
5.736,0.94
5.738,0.86
5.74,0.765
5.742,0.75
5.744,0.795
5.746,0.865
5.748,0.87
5.75,1.01
5.752,1.05
5.754,0.975
5.756,0.875
5.758,0.875
5.76,0.755
5.762,0.785
5.764,0.775
5.766,0.82
5.768,0.795
5.77,0.96
5.772,1.035
5.774,1.045
5.776,0.935
5.778,0.855
5.78,0.74
5.782,0.755
5.784,0.705
5.786,0.79
5.788,0.825
5.79,0.935
5.792,0.95
5.794,0.91
5.796,0.865
5.798,0.8
5.8,0.68
5.802,0.68
5.804,0.735
5.806,0.795
5.808,0.865
5.81,1.03
5.812,0.99
5.814,0.935
5.816,0.85
5.818,0.785
5.82,0.635
5.822,0.725
5.824,0.735
5.826,0.81
5.828,0.855
5.83,0.96
5.832,0.915
5.834,0.89
5.836,0.815
5.838,0.795
5.84,0.675
5.842,0.665
5.844,0.73
5.846,0.835
5.848,0.845
5.85,0.95
5.852,0.965
5.854,0.93
5.856,0.86
5.858,0.79
5.86,0.695
5.862,0.705
5.864,0.8
5.866,0.91
5.868,0.93
5.87,1.01
5.872,0.975
5.874,0.865
5.876,0.77
5.878,0.7
5.88,0.635
5.882,0.72
5.884,0.785
5.886,0.855
5.888,0.895
5.89,0.92
5.892,0.935
5.894,0.89
5.896,0.86
5.898,0.86
5.9,0.725
5.902,0.725
5.904,0.755
5.906,0.84
5.908,0.91
5.91,1
5.912,1.005
5.914,0.895
5.916,0.825
5.918,0.745
5.92,0.67
5.922,0.715
5.924,0.79
5.926,0.81
5.928,0.88
5.93,0.93
5.932,0.89
5.934,0.885
5.936,0.9
5.938,0.84
5.94,0.785
5.942,0.765
5.944,0.835
5.946,0.87
5.948,0.945
5.95,1.01
5.952,1
5.954,0.87
5.956,0.79
5.958,0.72
5.96,0.71
5.962,0.67
5.964,0.765
5.966,0.83
5.968,0.93
5.97,1.02
5.972,1
5.974,0.95
5.976,0.88
5.978,0.78
5.98,0.765
5.982,0.775
5.984,0.835
5.986,0.86
5.988,0.955
5.99,0.975
5.992,0.96
5.994,0.89
5.996,0.845
5.998,0.755
6,0.775
6.002,0.77
6.004,0.845
6.006,0.875
6.008,1
6.01,0.965
6.012,0.99
6.014,0.915
6.016,0.875
6.018,0.79
6.02,0.805
6.022,0.815
6.024,0.835
6.026,0.835
6.028,0.95
6.03,1
6.032,0.985
6.034,0.97
6.036,0.95
6.038,0.785
6.04,0.8
6.042,0.84
6.044,0.955
6.046,0.95
6.048,1.065
6.05,1.06
6.052,1.075
6.054,0.995
6.056,0.905
6.058,0.76
6.06,0.79
6.062,0.85
6.064,0.885
6.066,0.91
6.068,1.095
6.07,1.125
6.072,1.155
6.074,1.09
6.076,1.04
6.078,0.845
6.08,0.845
6.082,0.905
6.084,0.935
6.086,0.925
6.088,1.08
6.09,1.16
6.092,1.095
6.094,0.995
6.096,0.945
6.098,0.845
6.1,0.865
6.102,0.9
6.104,0.99
6.106,1.055
6.108,1.16
6.11,1.135
6.112,1.075
6.114,0.98
6.116,0.985
6.118,0.86
6.12,0.87
6.122,0.96
6.124,1.025
6.126,1.015
6.128,1.155
6.13,1.19
6.132,1.145
6.134,1.05
6.136,0.995
6.138,0.785
6.14,0.84
6.142,0.935
6.144,0.975
6.146,1.04
6.148,1.21
6.15,1.2
6.152,1.125
6.154,1.025
6.156,1.01
6.158,0.875
6.16,0.9
6.162,0.945
6.164,0.975
6.166,1.085
6.168,1.215
6.17,1.205
6.172,1.14
6.174,1.075
6.176,0.985
6.178,0.875
6.18,0.89
6.182,0.96
6.184,1.04
6.186,1.12
6.188,1.165
6.19,1.15
6.192,1.11
6.194,1.01
6.196,0.985
6.198,0.95
6.2,0.945
6.202,0.96
6.204,1.055
6.206,1.12
6.208,1.22
6.21,1.27
6.212,1.22
6.214,1.115
6.216,1.045
6.218,1.015
6.22,0.995
6.222,1.03
6.224,1.075
6.226,1.14
6.228,1.195
6.23,1.19
6.232,1.12
6.234,1.115
6.236,0.955
6.238,0.905
6.24,0.96
6.242,1.06
6.244,1.085
6.246,1.21
6.248,1.27
6.25,1.23
6.252,1.2
6.254,1.145
6.256,1.03
6.258,0.975
6.26,1
6.262,1.09
6.264,1.14
6.266,1.18
6.268,1.245
6.27,1.23
6.272,1.215
6.274,1.2
6.276,1.055
6.278,0.975
6.28,1.01
6.282,1.105
6.284,1.15
6.286,1.255
6.288,1.29
6.29,1.255
6.292,1.155
6.294,1.125
6.296,0.93
6.298,0.91
6.3,1.01
6.302,1.145
6.304,1.185
6.306,1.26
6.308,1.235
6.31,1.165
6.312,1.13
6.314,1.08
6.316,0.97
6.318,0.965
6.32,0.935
6.322,0.99
6.324,1.08
6.326,1.215
6.328,1.235
6.33,1.205
6.332,1.1
6.334,1.07
6.336,0.975
6.338,0.96
6.34,0.98
6.342,1.015
6.344,1.02
6.346,1.18
6.348,1.155
6.35,1.22
6.352,1.105
6.354,1.06
6.356,0.935
6.358,0.945
6.36,0.99
6.362,1.045
6.364,1.04
6.366,1.14
6.368,1.19
6.37,1.245
6.372,1.205
6.374,1.13
6.376,1.015
6.378,1
6.38,1.015
6.382,1.1
6.384,1.12
6.386,1.26
6.388,1.315
6.39,1.25
6.392,1.135
6.394,1.17
6.396,1
6.398,0.965
6.4,0.965
6.402,1.065
6.404,1.075
6.406,1.175
6.408,1.165
6.41,1.06
6.412,1.005
6.414,0.93
6.416,0.67
6.418,0.675
6.42,0.785
6.422,0.945
6.424,1
6.426,1.175
6.428,1.175
6.43,1.05
6.432,1.04
6.434,0.945
6.436,0.785
6.438,0.785
6.44,0.865
6.442,0.955
6.444,0.985
6.446,1.085
6.448,1.12
6.45,1.035
6.452,0.96
6.454,0.895
6.456,0.815
6.458,0.795
6.46,0.865
6.462,1.01
6.464,1.05
6.466,1.12
6.468,1.1
6.47,1.05
6.472,0.95
6.474,0.895
6.476,0.835
6.478,0.815
6.48,0.9
6.482,1.02
6.484,1.085
6.486,1.18
6.488,1.18
6.49,1.135
6.492,1.03
6.494,0.955
6.496,0.9
6.498,0.89
6.5,0.965
6.502,1.045
6.504,1.095
6.506,1.175
6.508,1.23
6.51,1.185
6.512,1.06
6.514,0.985
6.516,0.9
6.518,0.895
6.52,0.97
6.522,1.11
6.524,1.21
6.526,1.225
6.528,1.195
6.53,1.145
6.532,1.075
6.534,1.08
6.536,1.055
6.538,1.075
6.54,1.13
6.542,1.155
6.544,1.22
6.546,1.275
6.548,1.26
6.55,1.2
6.552,1.175
6.554,1.095
6.556,1.055
6.558,1.08
6.56,1.125
6.562,1.225
6.564,1.335
6.566,1.325
6.568,1.31
6.57,1.26
6.572,1.21
6.574,1.07
6.576,1.045
6.578,1.015
6.58,1.095
6.582,1.195
6.584,1.35
6.586,1.41
6.588,1.36
6.59,1.265
6.592,1.23
6.594,1.13
6.596,1.135
6.598,1.2
6.6,1.245
6.602,1.27
6.604,1.405
6.606,1.38
6.608,1.405
6.61,1.34
6.612,1.27
6.614,1.115
6.616,1.155
6.618,1.205
6.62,1.28
6.622,1.33
6.624,1.45
6.626,1.475
6.628,1.435
6.63,1.355
6.632,1.315
6.634,1.18
6.636,1.21
6.638,1.235
6.64,1.3
6.642,1.295
6.644,1.385
6.646,1.35
6.648,1.385
6.65,1.335
6.652,1.26
6.654,1.105
6.656,1.135
6.658,1.145
6.66,1.205
6.662,1.245
6.664,1.36
6.666,1.365
6.668,1.315
6.67,1.235
6.672,1.165
6.674,1.01
6.676,1.02
6.678,1.03
6.68,1.14
6.682,1.165
6.684,1.26
6.686,1.3
6.688,1.32
6.69,1.225
6.692,1.145
6.694,1
6.696,1.005
6.698,1.03
6.7,1.135
6.702,1.165
6.704,1.32
6.706,1.335
6.708,1.2
6.71,1.11
6.712,1.115
6.714,0.995
6.716,1
6.718,1.1
6.72,1.18
6.722,1.165
6.724,1.235
6.726,1.265
6.728,1.23
6.73,1.12
6.732,1.09
6.734,0.99
6.736,1.01
6.738,1.12
6.74,1.125
6.742,1.14
6.744,1.22
6.746,1.25
6.748,1.24
6.75,1.18
6.752,1.065
6.754,0.945
6.756,0.96
6.758,1
6.76,1.075
6.762,1.16
6.764,1.28
6.766,1.34
6.768,1.255
6.77,1.125
6.772,1.065
6.774,0.965
6.776,0.94
6.778,1.015
6.78,1.135
6.782,1.135
6.784,1.195
6.786,1.2
6.788,1.185
6.79,1.105
6.792,1.035
6.794,1.02
6.796,1.04
6.798,1.04
6.8,1.075
6.802,1.135
6.804,1.25
6.806,1.25
6.808,1.215
6.81,1.11
6.812,1.005
6.814,0.945
6.816,0.96
6.818,1.025
6.82,1.08
6.822,1.14
6.824,1.2
6.826,1.235
6.828,1.19
6.83,1.23
6.832,1.07
6.834,0.97
6.836,0.915
6.838,1.025
6.84,1.1
6.842,1.195
6.844,1.215
6.846,1.135
6.848,1.1
6.85,1.08
6.852,0.995
6.854,0.96
6.856,0.92
6.858,1.09
6.86,1.185
6.862,1.245
6.864,1.25
6.866,1.24
6.868,1.2
6.87,1.13
6.872,0.945
6.874,0.91
6.876,1.02
6.878,1.16
6.88,1.175
6.882,1.23
6.884,1.26
6.886,1.205
6.888,1.155
6.89,1.11
6.892,0.99
6.894,1.015
6.896,0.985
6.898,1.075
6.9,1.09
6.902,1.165
6.904,1.245
6.906,1.26
6.908,1.165
6.91,1.1
6.912,0.96
6.914,0.94
6.916,0.94
6.918,1.035
6.92,1.055
6.922,1.245
6.924,1.275
6.926,1.24
6.928,1.125
6.93,1.13
6.932,0.96
6.934,0.995
6.936,1.01
6.938,1.06
6.94,1.155
6.942,1.275
6.944,1.205
6.946,1.155
6.948,1.065
6.95,1.02
6.952,0.94
6.954,0.995
6.956,1.04
6.958,1.075
6.96,1.155
6.962,1.255
6.964,1.27
6.966,1.195
6.968,1.12
6.97,1.125
6.972,0.955
6.974,0.935
6.976,0.915
6.978,1.045
6.98,1.115
6.982,1.235
6.984,1.3
6.986,1.255
6.988,1.155
6.99,1.1
6.992,0.95
6.994,0.855
6.996,0.905
6.998,1.045
7,1.085
7.002,1.255
7.004,1.28
7.006,1.215
7.008,1.11
7.01,1.07
7.012,0.925
7.014,0.9
7.016,0.915
7.018,1
7.02,1.05
7.022,1.225
7.024,1.225
7.026,1.065
7.028,1.02
7.03,1.025
7.032,0.925
7.034,0.93
7.036,1.01
7.038,1.06
7.04,1.075
7.042,1.18
7.044,1.24
7.046,1.15
7.048,1.055
7.05,0.97
7.052,0.895
7.054,0.97
7.056,0.99
7.058,1.05
7.06,1.085
7.062,1.19
7.064,1.215
7.066,1.155
7.068,1.05
7.07,0.995
7.072,0.915
7.074,0.905
7.076,0.98
7.078,1.055
7.08,1.105
7.082,1.185
7.084,1.17
7.086,1.075
7.088,0.975
7.09,0.895
7.092,0.905
7.094,0.95
7.096,1.015
7.098,1.09
7.1,1.17
7.102,1.215
7.104,1.11
7.106,1
7.108,0.965
7.11,0.875
7.112,0.835
7.114,0.875
7.116,0.945
7.118,1.045
7.12,1.135
7.122,1.225
7.124,1.14
7.126,1.005
7.128,1.02
7.13,0.92
7.132,0.91
7.134,0.93
7.136,0.98
7.138,1.04
7.14,1.135
7.142,1.15
7.144,1.085
7.146,1.085
7.148,1.03
7.15,0.88
7.152,0.85
7.154,0.905
7.156,0.96
7.158,1.01
7.16,1.13
7.162,1.125
7.164,1.085
7.166,0.98
7.168,1
7.17,0.9
7.172,0.9
7.174,0.905
7.176,0.95
7.178,0.955
7.18,1.09
7.182,1.12
7.184,1.095
7.186,1.07
7.188,1.03
7.19,0.89
7.192,0.845
7.194,0.865
7.196,0.935
7.198,1
7.2,1.125
7.202,1.08
7.204,1.08
7.206,1.115
7.208,1.075
7.21,0.905
7.212,0.885
7.214,0.87
7.216,0.985
7.218,1.085
7.22,1.185
7.222,1.185
7.224,1.12
7.226,1.07
7.228,1.025
7.23,0.88
7.232,0.81
7.234,0.855
7.236,0.96
7.238,0.98
7.24,1.11
7.242,1.175
7.244,1.08
7.246,0.975
7.248,0.915
7.25,0.745
7.252,0.81
7.254,0.82
7.256,0.935
7.258,0.98
7.26,1.08
7.262,1.09
7.264,1.08
7.266,0.975
7.268,0.95
7.27,0.735
7.272,0.79
7.274,0.865
7.276,0.94
7.278,0.965
7.28,1.075
7.282,1.05
7.284,0.965
7.286,0.91
7.288,0.925
7.29,0.795
7.292,0.805
7.294,0.835
7.296,0.9
7.298,1
7.3,1.125
7.302,1.115
7.304,0.97
7.306,0.85
7.308,0.845
7.31,0.77
7.312,0.715
7.314,0.8
7.316,0.91
7.318,1
7.32,1.095
7.322,1.095
7.324,1.01
7.326,1.015
7.328,0.98
7.33,0.875
7.332,0.83
7.334,0.92
7.336,1.01
7.338,1.08
7.34,1.145
7.342,1.095
7.344,1.04
7.346,0.98
7.348,0.88
7.35,0.765
7.352,0.775
7.354,0.835
7.356,0.905
7.358,0.915
7.36,0.985
7.362,0.935
7.364,0.81
7.366,0.7
7.368,0.63
7.37,0.6
7.372,0.65
7.374,0.75
7.376,0.795
7.378,0.955
7.38,1.09
7.382,1.055
7.384,0.98
7.386,0.855
7.388,0.77
7.39,0.71
7.392,0.69
7.394,0.775
7.396,0.835
7.398,0.885
7.4,0.955
7.402,0.955
7.404,0.885
7.406,0.88
7.408,0.82
7.41,0.74
7.412,0.715
7.414,0.825
7.416,0.885
7.418,0.91
7.42,0.995
7.422,0.925
7.424,0.845
7.426,0.78
7.428,0.71
7.43,0.67
7.432,0.615
7.434,0.725
7.436,0.83
7.438,0.925
7.44,0.975
7.442,0.9
7.444,0.87
7.446,0.87
7.448,0.725
7.45,0.68
7.452,0.72
7.454,0.81
7.456,0.875
7.458,0.97
7.46,0.96
7.462,0.845
7.464,0.74
7.466,0.75
7.468,0.675
7.47,0.67
7.472,0.655
7.474,0.695
7.476,0.77
7.478,0.93
7.48,0.935
7.482,0.905
7.484,0.82
7.486,0.775
7.488,0.625
7.49,0.635
7.492,0.66
7.494,0.765
7.496,0.835
7.498,0.93
7.5,0.96
7.502,0.945
7.504,0.83
7.506,0.76
7.508,0.585
7.51,0.585
7.512,0.635
7.514,0.75
7.516,0.79
7.518,0.925
7.52,0.92
7.522,0.925
7.524,0.84
7.526,0.78
7.528,0.625
7.53,0.57
7.532,0.61
7.534,0.675
7.536,0.795
7.538,0.925
7.54,0.96
7.542,0.865
7.544,0.825
7.546,0.81
7.548,0.645
7.55,0.645
7.552,0.68
7.554,0.76
7.556,0.775
7.558,0.915
7.56,1.02
7.562,0.925
7.564,0.77
7.566,0.73
7.568,0.61
7.57,0.62
7.572,0.67
7.574,0.84
7.576,0.86
7.578,0.935
7.58,0.905
7.582,0.845
7.584,0.755
7.586,0.73
7.588,0.57
7.59,0.52
7.592,0.625
7.594,0.68
7.596,0.72
7.598,0.835
7.6,0.83
7.602,0.78
7.604,0.685
7.606,0.645
7.608,0.51
7.61,0.51
7.612,0.575
7.614,0.61
7.616,0.65
7.618,0.725
7.62,0.75
7.622,0.675
7.624,0.615
7.626,0.5
7.628,0.385
7.63,0.385
7.632,0.445
7.634,0.52
7.636,0.55
7.638,0.68
7.64,0.67
7.642,0.655
7.644,0.615
7.646,0.41
7.648,0.335
7.65,0.34
7.652,0.38
7.654,0.475
7.656,0.495
7.658,0.59
7.66,0.58
7.662,0.44
7.664,0.48
7.666,0.41
7.668,0.355
7.67,0.33
7.672,0.415
7.674,0.48
7.676,0.525
7.678,0.565
7.68,0.555
7.682,0.485
7.684,0.435
7.686,0.34
7.688,0.27
7.69,0.315
7.692,0.41
7.694,0.41
7.696,0.495
7.698,0.545
7.7,0.515
7.702,0.415
7.704,0.325
7.706,0.31
7.708,0.295
7.71,0.24
7.712,0.335
7.714,0.43
7.716,0.485
7.718,0.445
7.72,0.43
7.722,0.435
7.724,0.385
7.726,0.285
7.728,0.25
7.73,0.21
7.732,0.325
7.734,0.415
7.736,0.46
7.738,0.485
7.74,0.5
7.742,0.405
7.744,0.32
7.746,0.18
7.748,0.175
7.75,0.16
7.752,0.26
7.754,0.36
7.756,0.47
7.758,0.425
7.76,0.375
7.762,0.335
7.764,0.25
7.766,0.08
7.768,0.105
7.77,0.145
7.772,0.235
7.774,0.295
7.776,0.42
7.778,0.42
7.78,0.33
7.782,0.265
7.784,0.285
7.786,0.165
7.788,0.14
7.79,0.19
7.792,0.25
7.794,0.265
7.796,0.395
7.798,0.425
7.8,0.35
7.802,0.205
7.804,0.1
7.806,-0.02
7.808,0.045
7.81,0.12
7.812,0.23
7.814,0.24
7.816,0.36
7.818,0.395
7.82,0.38
7.822,0.31
7.824,0.19
7.826,0.09
7.828,0.08
7.83,0.09
7.832,0.18
7.834,0.24
7.836,0.385
7.838,0.37
7.84,0.33
7.842,0.225
7.844,0.16
7.846,-0.015
7.848,-0.035
7.85,-0.03
7.852,0.095
7.854,0.19
7.856,0.275
7.858,0.31
7.86,0.25
7.862,0.14
7.864,0.14
7.866,0.01
7.868,-0.045
7.87,0.025
7.872,0.15
7.874,0.145
7.876,0.225
7.878,0.29
7.88,0.265
7.882,0.14
7.884,0.035
7.886,-0.105
7.888,-0.095
7.89,-0.005
7.892,0.09
7.894,0.065
7.896,0.13
7.898,0.11
7.9,0.09
7.902,0.115
7.904,0.08
7.906,-0.075
7.908,-0.065
7.91,0.015
7.912,0.085
7.914,0.085
7.916,0.17
7.918,0.14
7.92,0.11
7.922,0.045
7.924,-0.065
7.926,-0.135
7.928,-0.13
7.93,-0.1
7.932,-0.005
7.934,0.07
7.936,0.105
7.938,0.105
7.94,0.035
7.942,-0.03
7.944,-0.085
7.946,-0.17
7.948,-0.19
7.95,-0.095
7.952,-0.07
7.954,0
7.956,0.115
7.958,0.045
7.96,0.05
7.962,0.04
7.964,-0.08
7.966,-0.21
7.968,-0.205
7.97,-0.175
7.972,-0.1
7.974,0.005
7.976,0.04
7.978,-0.015
7.98,-0.065
7.982,-0.11
7.984,-0.2
7.986,-0.2
7.988,-0.16
7.99,-0.105
7.992,-0.12
7.994,0.005
7.996,0.115
7.998,0.095
8,-0.005
8.002,-0.1
8.004,-0.215
8.006,-0.275
8.008,-0.285
8.01,-0.205
8.012,-0.185
8.014,-0.085
8.016,-0.005
8.018,-0.025
8.02,-0.065
8.022,-0.115
8.024,-0.305
8.026,-0.305
8.028,-0.225
8.03,-0.195
8.032,-0.185
8.034,-0.08
8.036,-0.07
8.038,-0.07
8.04,-0.145
8.042,-0.26
8.044,-0.345
8.046,-0.275
8.048,-0.28
8.05,-0.23
8.052,-0.16
8.054,-0.05
8.056,-0.05
8.058,-0.11
8.06,-0.17
8.062,-0.16
8.064,-0.32
8.066,-0.335
8.068,-0.325
8.07,-0.25
8.072,-0.23
8.074,-0.13
8.076,-0.09
8.078,-0.09
8.08,-0.185
8.082,-0.26
8.084,-0.385
8.086,-0.375
8.088,-0.325
8.09,-0.275
8.092,-0.275
8.094,-0.15
8.096,-0.145
8.098,-0.16
8.1,-0.275
8.102,-0.29
8.104,-0.37
8.106,-0.315
8.108,-0.295
8.11,-0.265
8.112,-0.27
8.114,-0.135
8.116,-0.15
8.118,-0.205
8.12,-0.305
8.122,-0.355
8.124,-0.495
8.126,-0.485
8.128,-0.465
8.13,-0.385
8.132,-0.325
8.134,-0.215
8.136,-0.245
8.138,-0.315
8.14,-0.34
8.142,-0.33
8.144,-0.485
8.146,-0.435
8.148,-0.415
8.15,-0.37
8.152,-0.325
8.154,-0.215
8.156,-0.235
8.158,-0.3
8.16,-0.365
8.162,-0.42
8.164,-0.54
8.166,-0.525
8.168,-0.45
8.17,-0.395
8.172,-0.32
8.174,-0.225
8.176,-0.25
8.178,-0.26
8.18,-0.335
8.182,-0.43
8.184,-0.525
8.186,-0.57
8.188,-0.48
8.19,-0.39
8.192,-0.38
8.194,-0.27
8.196,-0.26
8.198,-0.36
8.2,-0.375
8.202,-0.445
8.204,-0.58
8.206,-0.55
8.208,-0.41
8.21,-0.285
8.212,-0.295
8.214,-0.25
8.216,-0.225
8.218,-0.2
8.22,-0.285
8.222,-0.405
8.224,-0.495
8.226,-0.43
8.228,-0.375
8.23,-0.29
8.232,-0.27
8.234,-0.215
8.236,-0.23
8.238,-0.38
8.24,-0.45
8.242,-0.585
8.244,-0.65
8.246,-0.6
8.248,-0.56
8.25,-0.53
8.252,-0.48
8.254,-0.47
8.256,-0.47
8.258,-0.5
8.26,-0.485
8.262,-0.55
8.264,-0.605
8.266,-0.575
8.268,-0.53
8.27,-0.49
8.272,-0.39
8.274,-0.29
8.276,-0.325
8.278,-0.44
8.28,-0.475
8.282,-0.555
8.284,-0.6
8.286,-0.61
8.288,-0.6
8.29,-0.575
8.292,-0.42
8.294,-0.38
8.296,-0.325
8.298,-0.405
8.3,-0.475
8.302,-0.565
8.304,-0.62
8.306,-0.675
8.308,-0.575
8.31,-0.495
8.312,-0.39
8.314,-0.37
8.316,-0.39
8.318,-0.44
8.32,-0.47
8.322,-0.58
8.324,-0.595
8.326,-0.61
8.328,-0.57
8.33,-0.62
8.332,-0.44
8.334,-0.395
8.336,-0.41
8.338,-0.465
8.34,-0.505
8.342,-0.655
8.344,-0.68
8.346,-0.645
8.348,-0.56
8.35,-0.52
8.352,-0.445
8.354,-0.415
8.356,-0.42
8.358,-0.53
8.36,-0.54
8.362,-0.64
8.364,-0.635
8.366,-0.645
8.368,-0.61
8.37,-0.605
8.372,-0.44
8.374,-0.495
8.376,-0.45
8.378,-0.46
8.38,-0.545
8.382,-0.72
8.384,-0.705
8.386,-0.645
8.388,-0.59
8.39,-0.495
8.392,-0.36
8.394,-0.355
8.396,-0.44
8.398,-0.535
8.4,-0.555
8.402,-0.66
8.404,-0.675
8.406,-0.68
8.408,-0.575
8.41,-0.515
8.412,-0.4
8.414,-0.325
8.416,-0.42
8.418,-0.515
8.42,-0.57
8.422,-0.68
8.424,-0.635
8.426,-0.605
8.428,-0.515
8.43,-0.505
8.432,-0.32
8.434,-0.3
8.436,-0.385
8.438,-0.44
8.44,-0.5
8.442,-0.68
8.444,-0.67
8.446,-0.53
8.448,-0.44
8.45,-0.465
8.452,-0.31
8.454,-0.3
8.456,-0.405
8.458,-0.435
8.46,-0.45
8.462,-0.555
8.464,-0.545
8.466,-0.52
8.468,-0.405
8.47,-0.44
8.472,-0.345
8.474,-0.3
8.476,-0.38
8.478,-0.47
8.48,-0.51
8.482,-0.645
8.484,-0.665
8.486,-0.58
8.488,-0.515
8.49,-0.49
8.492,-0.39
8.494,-0.39
8.496,-0.45
8.498,-0.555
8.5,-0.615
8.502,-0.7
8.504,-0.7
8.506,-0.66
8.508,-0.57
8.51,-0.545
8.512,-0.46
8.514,-0.515
8.516,-0.625
8.518,-0.745
8.52,-0.745
8.522,-0.8
8.524,-0.805
8.526,-0.705
8.528,-0.6
8.53,-0.575
8.532,-0.51
8.534,-0.52
8.536,-0.61
8.538,-0.705
8.54,-0.765
8.542,-0.825
8.544,-0.815
8.546,-0.775
8.548,-0.71
8.55,-0.555
8.552,-0.52
8.554,-0.57
8.556,-0.67
8.558,-0.715
8.56,-0.79
8.562,-0.82
8.564,-0.795
8.566,-0.72
8.568,-0.66
8.57,-0.615
8.572,-0.585
8.574,-0.635
8.576,-0.66
8.578,-0.755
8.58,-0.91
8.582,-0.94
8.584,-0.84
8.586,-0.73
8.588,-0.71
8.59,-0.615
8.592,-0.61
8.594,-0.625
8.596,-0.61
8.598,-0.73
8.6,-0.885
8.602,-0.94
8.604,-0.865
8.606,-0.805
8.608,-0.785
8.61,-0.685
8.612,-0.68
8.614,-0.695
8.616,-0.785
8.618,-0.81
8.62,-0.905
8.622,-0.895
8.624,-0.855
8.626,-0.805
8.628,-0.76
8.63,-0.635
8.632,-0.6
8.634,-0.63
8.636,-0.71
8.638,-0.75
8.64,-0.855
8.642,-0.895
8.644,-0.925
8.646,-0.86
8.648,-0.79
8.65,-0.645
8.652,-0.685
8.654,-0.62
8.656,-0.73
8.658,-0.77
8.66,-0.845
8.662,-0.88
8.664,-0.875
8.666,-0.785
8.668,-0.755
8.67,-0.66
8.672,-0.695
8.674,-0.765
8.676,-0.805
8.678,-0.805
8.68,-0.965
8.682,-1.01
8.684,-0.925
8.686,-0.775
8.688,-0.76
8.69,-0.665
8.692,-0.675
8.694,-0.745
8.696,-0.765
8.698,-0.805
8.7,-0.92
8.702,-0.93
8.704,-0.92
8.706,-0.82
8.708,-0.815
8.71,-0.725
8.712,-0.695
8.714,-0.76
8.716,-0.875
8.718,-0.86
8.72,-0.925
8.722,-0.95
8.724,-0.935
8.726,-0.86
8.728,-0.815
8.73,-0.665
8.732,-0.645
8.734,-0.7
8.736,-0.805
8.738,-0.885
8.74,-1.01
8.742,-0.965
8.744,-0.91
8.746,-0.86
8.748,-0.785
8.75,-0.68
8.752,-0.705
8.754,-0.755
8.756,-0.885
8.758,-0.92
8.76,-1.005
8.762,-0.995
8.764,-0.915
8.766,-0.835
8.768,-0.81
8.77,-0.74
8.772,-0.71
8.774,-0.77
8.776,-0.87
8.778,-0.985
8.78,-1.035
8.782,-0.995
8.784,-0.965
8.786,-0.89
8.788,-0.825
8.79,-0.8
8.792,-0.785
8.794,-0.86
8.796,-0.88
8.798,-0.92
8.8,-0.995
8.802,-0.955
8.804,-0.955
8.806,-0.89
8.808,-0.83
8.81,-0.75
8.812,-0.775
8.814,-0.855
8.816,-0.985
8.818,-1.07
8.82,-1.11
8.822,-1.07
8.824,-0.985
8.826,-0.935
8.828,-0.87
8.83,-0.81
8.832,-0.82
8.834,-0.855
8.836,-0.91
8.838,-0.96
8.84,-1.045
8.842,-1.075
8.844,-0.985
8.846,-0.895
8.848,-0.815
8.85,-0.775
8.852,-0.79
8.854,-0.92
8.856,-1.015
8.858,-1.1
8.86,-1.11
8.862,-1.06
8.864,-0.97
8.866,-0.97
8.868,-0.865
8.87,-0.785
8.872,-0.795
8.874,-0.84
8.876,-0.905
8.878,-1.115
8.88,-1.125
8.882,-1.1
8.884,-0.99
8.886,-0.985
8.888,-0.92
8.89,-0.885
8.892,-0.885
8.894,-0.925
8.896,-0.975
8.898,-1.13
8.9,-1.2
8.902,-1.135
8.904,-1.06
8.906,-1.005
8.908,-0.89
8.91,-0.84
8.912,-0.92
8.914,-1.01
8.916,-1.055
8.918,-1.195
8.92,-1.13
8.922,-1.095
8.924,-1.08
8.926,-1.07
8.928,-0.945
8.93,-0.945
8.932,-0.935
8.934,-0.985
8.936,-0.96
8.938,-1.12
8.94,-1.185
8.942,-1.16
8.944,-1.135
8.946,-1.065
8.948,-0.925
8.95,-0.9
8.952,-0.91
8.954,-1.015
8.956,-1.075
8.958,-1.22
8.96,-1.205
8.962,-1.255
8.964,-1.195
8.966,-1.15
8.968,-0.91
8.97,-0.91
8.972,-0.97
8.974,-1.08
8.976,-1.125
8.978,-1.23
8.98,-1.225
8.982,-1.24
8.984,-1.13
8.986,-1.13
8.988,-1.005
8.99,-1.015
8.992,-0.98
8.994,-1.04
8.996,-1.11
8.998,-1.265
9,-1.22
9.002,-1.155
9.004,-1.095
9.006,-1.09
9.008,-1.005
9.01,-0.975
9.012,-1.085
9.014,-1.15
9.016,-1.2
9.018,-1.4
9.02,-1.345
9.022,-1.22
9.024,-1.13
9.026,-1.095
9.028,-1.02
9.03,-1.005
9.032,-1.02
9.034,-1.1
9.036,-1.15
9.038,-1.285
9.04,-1.28
9.042,-1.285
9.044,-1.225
9.046,-1.135
9.048,-0.995
9.05,-0.985
9.052,-1.08
9.054,-1.185
9.056,-1.17
9.058,-1.25
9.06,-1.265
9.062,-1.255
9.064,-1.175
9.066,-1.05
9.068,-0.975
9.07,-1.005
9.072,-1.085
9.074,-1.115
9.076,-1.18
9.078,-1.265
9.08,-1.275
9.082,-1.23
9.084,-1.175
9.086,-1.1
9.088,-1.02
9.09,-1.03
9.092,-1.095
9.094,-1.165
9.096,-1.26
9.098,-1.325
9.1,-1.29
9.102,-1.17
9.104,-1.135
9.106,-1.095
9.108,-1.06
9.11,-1.085
9.112,-1.125
9.114,-1.155
9.116,-1.265
9.118,-1.285
9.12,-1.29
9.122,-1.24
9.124,-1.16
9.126,-1.08
9.128,-1.015
9.13,-0.99
9.132,-1.095
9.134,-1.115
9.136,-1.275
9.138,-1.295
9.14,-1.28
9.142,-1.205
9.144,-1.105
9.146,-0.985
9.148,-0.945
9.15,-0.98
9.152,-1.075
9.154,-1.115
9.156,-1.185
9.158,-1.21
9.16,-1.285
9.162,-1.215
9.164,-1.145
9.166,-1.04
9.168,-1.055
9.17,-1.07
9.172,-1.11
9.174,-1.13
9.176,-1.26
9.178,-1.31
9.18,-1.34
9.182,-1.26
9.184,-1.23
9.186,-1.155
9.188,-1.07
9.19,-1.15
9.192,-1.295
9.194,-1.235
9.196,-1.305
9.198,-1.37
9.2,-1.29
9.202,-1.215
9.204,-1.205
9.206,-1.12
9.208,-1.105
9.21,-1.075
9.212,-1.215
9.214,-1.275
9.216,-1.385
9.218,-1.365
9.22,-1.4
9.222,-1.285
9.224,-1.195
9.226,-1.05
9.228,-1.005
9.23,-1.055
9.232,-1.175
9.234,-1.205
9.236,-1.33
9.238,-1.36
9.24,-1.315
9.242,-1.245
9.244,-1.23
9.246,-1.07
9.248,-1.065
9.25,-1.115
9.252,-1.22
9.254,-1.25
9.256,-1.315
9.258,-1.3
9.26,-1.295
9.262,-1.23
9.264,-1.175
9.266,-0.985
9.268,-1.03
9.27,-1.055
9.272,-1.065
9.274,-1.105
9.276,-1.285
9.278,-1.375
9.28,-1.38
9.282,-1.345
9.284,-1.335
9.286,-1.115
9.288,-1.115
9.29,-1.235
9.292,-1.35
9.294,-1.39
9.296,-1.465
9.298,-1.46
9.3,-1.39
9.302,-1.255
9.304,-1.21
9.306,-1.155
9.308,-1.195
9.31,-1.23
9.312,-1.31
9.314,-1.35
9.316,-1.42
9.318,-1.4
9.32,-1.365
9.322,-1.245
9.324,-1.14
9.326,-1.075
9.328,-1.025
9.33,-1.11
9.332,-1.235
9.334,-1.27
9.336,-1.37
9.338,-1.435
9.34,-1.345
9.342,-1.24
9.344,-1.22
9.346,-1.17
9.348,-1.14
9.35,-1.205
9.352,-1.295
9.354,-1.365
9.356,-1.45
9.358,-1.41
9.36,-1.3
9.362,-1.265
9.364,-1.245
9.366,-1.16
9.368,-1.14
9.37,-1.23
9.372,-1.315
9.374,-1.32
9.376,-1.4
9.378,-1.45
9.38,-1.375
9.382,-1.255
9.384,-1.19
9.386,-1.135
9.388,-1.11
9.39,-1.22
9.392,-1.31
9.394,-1.39
9.396,-1.475
9.398,-1.42
9.4,-1.315
9.402,-1.23
9.404,-1.175
9.406,-1.135
9.408,-1.12
9.41,-1.155
9.412,-1.235
9.414,-1.38
9.416,-1.395
9.418,-1.365
9.42,-1.275
9.422,-1.21
9.424,-1.08
9.426,-1.005
9.428,-1.05
9.43,-1.17
9.432,-1.26
9.434,-1.375
9.436,-1.435
9.438,-1.405
9.44,-1.275
9.442,-1.235
9.444,-1.15
9.446,-1.075
9.448,-1.1
9.45,-1.195
9.452,-1.205
9.454,-1.27
9.456,-1.31
9.458,-1.285
9.46,-1.225
9.462,-1.175
9.464,-1.1
9.466,-1.08
9.468,-1.09
9.47,-1.15
9.472,-1.175
9.474,-1.245
9.476,-1.21
9.478,-1.235
9.48,-1.165
9.482,-1.085
9.484,-0.955
9.486,-0.97
9.488,-0.985
9.49,-1.08
9.492,-1.115
9.494,-1.2
9.496,-1.16
9.498,-1.105
9.5,-1.05
9.502,-1.07
9.504,-0.88
9.506,-0.885
9.508,-0.985
9.51,-1.065
9.512,-1.065
9.514,-1.165
9.516,-1.17
9.518,-1.17
9.52,-1.085
9.522,-1.025
9.524,-0.89
9.526,-0.895
9.528,-0.95
9.53,-1.045
9.532,-1.06
9.534,-1.205
9.536,-1.215
9.538,-1.18
9.54,-1.12
9.542,-1.125
9.544,-1
9.546,-0.945
9.548,-0.99
9.55,-1.085
9.552,-1.17
9.554,-1.305
9.556,-1.28
9.558,-1.29
9.56,-1.22
9.562,-1.17
9.564,-1.035
9.566,-1.04
9.568,-1.14
9.57,-1.155
9.572,-1.11
9.574,-1.24
9.576,-1.235
9.578,-1.23
9.58,-1.185
9.582,-1.16
9.584,-1.01
9.586,-0.98
9.588,-1.095
9.59,-1.17
9.592,-1.2
9.594,-1.32
9.596,-1.325
9.598,-1.21
9.6,-1.12
9.602,-1.14
9.604,-1.03
9.606,-1.06
9.608,-1.085
9.61,-1.145
9.612,-1.22
9.614,-1.33
9.616,-1.35
9.618,-1.29
9.62,-1.16
9.622,-1.16
9.624,-1.095
9.626,-1.03
9.628,-1.04
9.63,-1.15
9.632,-1.26
9.634,-1.33
9.636,-1.29
9.638,-1.215
9.64,-1.095
9.642,-1.05
9.644,-1.02
9.646,-1.03
9.648,-1.09
9.65,-1.165
9.652,-1.23
9.654,-1.345
9.656,-1.275
9.658,-1.205
9.66,-1.175
9.662,-1.13
9.664,-1.025
9.666,-1.025
9.668,-1.05
9.67,-1.12
9.672,-1.25
9.674,-1.345
9.676,-1.36
9.678,-1.215
9.68,-1.15
9.682,-1.055
9.684,-0.985
9.686,-1.005
9.688,-1.09
9.69,-1.105
9.692,-1.25
9.694,-1.33
9.696,-1.305
9.698,-1.23
9.7,-1.17
9.702,-1.02
9.704,-0.945
9.706,-1.005
9.708,-1.11
9.71,-1.14
9.712,-1.25
9.714,-1.29
9.716,-1.27
9.718,-1.165
9.72,-1.125
9.722,-1.105
9.724,-0.975
9.726,-0.955
9.728,-1.055
9.73,-1.145
9.732,-1.255
9.734,-1.35
9.736,-1.275
9.738,-1.13
9.74,-1.03
9.742,-0.945
9.744,-0.925
9.746,-0.96
9.748,-1.08
9.75,-1.13
9.752,-1.28
9.754,-1.305
9.756,-1.26
9.758,-1.175
9.76,-1.145
9.762,-1.05
9.764,-1.035
9.766,-1.055
9.768,-1.08
9.77,-1.15
9.772,-1.27
9.774,-1.28
9.776,-1.24
9.778,-1.21
9.78,-1.175
9.782,-1.03
9.784,-0.975
9.786,-0.98
9.788,-1.1
9.79,-1.16
9.792,-1.3
9.794,-1.275
9.796,-1.29
9.798,-1.215
9.8,-1.17
9.802,-1.03
9.804,-1.035
9.806,-1.025
9.808,-1.085
9.81,-1.12
9.812,-1.28
9.814,-1.29
9.816,-1.28
9.818,-1.145
9.82,-1.115
9.822,-1
9.824,-1.01
9.826,-1.05
9.828,-1.11
9.83,-1.15
9.832,-1.32
9.834,-1.355
9.836,-1.315
9.838,-1.185
9.84,-1.055
9.842,-0.89
9.844,-0.865
9.846,-0.975
9.848,-1.11
9.85,-1.195
9.852,-1.285
9.854,-1.255
9.856,-1.22
9.858,-1.095
9.86,-1.07
9.862,-0.955
9.864,-0.855
9.866,-0.96
9.868,-1.005
9.87,-0.98
9.872,-1.155
9.874,-1.155
9.876,-1.07
9.878,-0.99
9.88,-0.975
9.882,-0.86
9.884,-0.86
9.886,-0.925
9.888,-0.955
9.89,-1.015
9.892,-1.115
9.894,-1.14
9.896,-1.095
9.898,-1.025
9.9,-1
9.902,-0.875
9.904,-0.87
9.906,-0.945
9.908,-0.995
9.91,-0.99
9.912,-1.12
9.914,-1.175
9.916,-1.075
9.918,-0.94
9.92,-0.92
9.922,-0.845
9.924,-0.89
9.926,-0.975
9.928,-1.01
9.93,-1.12
9.932,-1.205
9.934,-1.15
9.936,-1.13
9.938,-1.025
9.94,-0.92
9.942,-0.89
9.944,-0.86
9.946,-0.865
9.948,-0.98
9.95,-1.05
9.952,-1.145
9.954,-1.155
9.956,-1.06
9.958,-1.025
9.96,-0.955
9.962,-0.875
9.964,-0.85
9.966,-0.89
9.968,-0.99
9.97,-1.11
9.972,-1.185
9.974,-1.225
9.976,-1.12
9.978,-1.025
9.98,-0.915
9.982,-0.83
9.984,-0.78
9.986,-0.865
9.988,-0.99
9.99,-1.07
9.992,-1.15
9.994,-1.135
9.996,-1.06
9.998,-1.05
