0,0
0.002,-0.035
0.004,-0.055
0.006,-0.17
0.008,-0.12
0.01,-0.095
0.012,-0.025
0.014,0.04
0.016,0.105
0.018,0.07
0.02,0.05
0.022,-0.005
0.024,-0.1
0.026,-0.2
0.028,-0.185
0.03,-0.13
0.032,0.025
0.034,0.06
0.036,0.17
0.038,0.115
0.04,0.045
0.042,0.05
0.044,-0.105
0.046,-0.115
0.048,-0.135
0.05,-0.02
0.052,-0.025
0.054,0.05
0.056,0.085
0.058,0.105
0.06,0.12
0.062,-0.03
0.064,-0.14
0.066,-0.155
0.068,-0.155
0.07,-0.095
0.072,0.03
0.074,0.075
0.076,0.14
0.078,0.07
0.08,0.045
0.082,-0.05
0.084,-0.065
0.086,-0.175
0.088,-0.17
0.09,-0.065
0.092,-0.045
0.094,0.07
0.096,0.115
0.098,0.135
0.1,-0.035
0.102,-0.05
0.104,-0.12
0.106,-0.13
0.108,-0.115
0.11,-0.03
0.112,-0.015
0.114,0.08
0.116,0.12
0.118,0.1
0.12,-0.015
0.122,0.025
0.124,-0.08
0.126,-0.105
0.128,-0.11
0.13,-0.09
0.132,-0.015
0.134,0.11
0.136,0.085
0.138,0.125
0.14,0.11
0.142,-0.05
0.144,-0.13
0.146,-0.145
0.148,-0.135
0.15,-0.02
0.152,-0.09
0.154,0.075
0.156,0.12
0.158,0.045
0.16,0.005
0.162,-0.03
0.164,-0.12
0.166,-0.13
0.168,-0.14
0.17,-0.055
0.172,0.015
0.174,0.09
0.176,0.085
0.178,0.07
0.18,0
0.182,-0.04
0.184,-0.17
0.186,-0.185
0.188,-0.195
0.19,-0.075
0.192,-0.04
0.194,0.105
0.196,0.12
0.198,0.095
0.2,0.05
0.202,0
0.204,-0.2
0.206,-0.125
0.208,-0.075
0.21,-0.055
0.212,-0.02
0.214,0.11
0.216,0.115
0.218,0.07
0.22,-0.02
0.222,-0.04
0.224,-0.135
0.226,-0.185
0.228,-0.085
0.23,-0.01
0.232,0.105
0.234,0.135
0.236,0.07
0.238,0.02
0.24,-0.02
0.242,-0.02
0.244,-0.14
0.246,-0.1
0.248,-0.11
0.25,-0.005
0.252,0.045
0.254,0.1
0.256,0.03
0.258,0.03
0.26,-0.085
0.262,-0.05
0.264,-0.11
0.266,-0.095
0.268,-0.04
0.27,0.075
0.272,0.055
0.274,0.095
0.276,0.165
0.278,0.09
0.28,0.015
0.282,0.02
0.284,-0.09
0.286,-0.145
0.288,-0.035
0.29,0.05
0.292,0.135
0.294,0.18
0.296,0.18
0.298,0.08
0.3,-0.015
0.302,-0.055
0.304,-0.075
0.306,-0.14
0.308,-0.09
0.31,-0.01
0.312,0.115
0.314,0.095
0.316,0.115
0.318,0.01
0.32,-0.01
0.322,-0.085
0.324,-0.145
0.326,-0.13
0.328,-0.085
0.33,-0.06
0.332,0.015
0.334,0.115
0.336,0.145
0.338,-0.01
0.34,-0.005
0.342,-0.07
0.344,-0.14
0.346,-0.1
0.348,-0.12
0.35,0.005
0.352,0.005
0.354,0.01
0.356,0.035
0.358,-0.015
0.36,0.135
0.362,0.1
0.364,0.115
0.366,0.3
0.368,0.52
0.37,0.62
0.372,0.765
0.374,0.855
0.376,0.78
0.378,0.685
0.38,0.625
0.382,0.55
0.384,0.49
0.386,0.475
0.388,0.405
0.39,0.39
0.392,0.28
0.394,0.14
0.396,0.055
0.398,-0.035
0.4,-0.005
0.402,-0.165
0.404,-0.165
0.406,-0.165
0.408,-0.055
0.41,0.01
0.412,0.02
0.414,0.1
0.416,0.13
0.418,0.035
0.42,-0.085
0.422,-0.125
0.424,-0.18
0.426,-0.16
0.428,-0.015
0.43,0.04
0.432,0.1
0.434,0.16
0.436,0.025
0.438,0.01
0.44,-0.065
0.442,-0.145
0.444,-0.085
0.446,-0.13
0.448,-0.05
0.45,0
0.452,0.14
0.454,0.065
0.456,0.07
0.458,0.03
0.46,-0.035
0.462,-0.185
0.464,-0.11
0.466,-0.095
0.468,0.025
0.47,-0.035
0.472,0.095
0.474,0.085
0.476,0.08
0.478,0.025
0.48,-0.035
0.482,-0.13
0.484,-0.105
0.486,-0.115
0.488,0.095
0.49,0.09
0.492,0.09
0.494,0.125
0.496,0.085
0.498,0.04
0.5,0.02
0.502,-0.06
0.504,-0.14
0.506,-0.095
0.508,-0.005
0.51,0.035
0.512,0.125
0.514,0.165
0.516,0.075
0.518,0.055
0.52,0.05
0.522,-0.07
0.524,-0.06
0.526,-0.015
0.528,0.025
0.53,0.07
0.532,0.11
0.534,0.255
0.536,0.16
0.538,0.06
0.54,-0.02
0.542,-0.085
0.544,-0.08
0.546,-0.01
0.548,0.1
0.55,0.105
0.552,0.18
0.554,0.27
0.556,0.09
0.558,0.085
0.56,0.08
0.562,-0.005
0.564,-0.02
0.566,0.025
0.568,0.24
0.57,0.26
0.572,0.345
0.574,0.24
0.576,0.23
0.578,0.225
0.58,0.155
0.582,0.095
0.584,0.11
0.586,0.17
0.588,0.22
0.59,0.36
0.592,0.45
0.594,0.4
0.596,0.265
0.598,0.22
0.6,0.19
0.602,0.11
0.604,0.095
0.606,0.185
0.608,0.235
0.61,0.36
0.612,0.335
0.614,0.325
0.616,0.37
0.618,0.215
0.62,0.055
0.622,0.085
0.624,0.055
0.626,0.1
0.628,0.145
0.63,0.215
0.632,0.22
0.634,0.295
0.636,0.13
0.638,0.05
0.64,0.05
0.642,-0.06
0.644,-0.025
0.646,0.04
0.648,0.065
0.65,0.1
0.652,0.17
0.654,0.15
0.656,0.055
0.658,0.02
0.66,-0.065
0.662,-0.11
0.664,-0.045
0.666,0
0.668,-0.07
0.67,0.095
0.672,0.16
0.674,0.09
0.676,0.025
0.678,-0.035
0.68,-0.14
0.682,-0.155
0.684,-0.145
0.686,-0.05
0.688,0.08
0.69,0.11
0.692,0.145
0.694,0.05
0.696,0.025
0.698,-0.005
0.7,-0.18
0.702,-0.06
0.704,-0.12
0.706,-0.075
0.708,-0.03
0.71,0.09
0.712,0.115
0.714,0.01
0.716,0.01
0.718,-0.005
0.72,-0.055
0.722,-0.08
0.724,-0.075
0.726,-0.105
0.728,0
0.73,0.14
0.732,0.04
0.734,0.07
0.736,0.035
0.738,0.05
0.74,-0.14
0.742,-0.185
0.744,-0.11
0.746,-0.015
0.748,0.02
0.75,0.11
0.752,0.085
0.754,0.04
0.756,0.04
0.758,-0.045
0.76,-0.11
0.762,-0.125
0.764,-0.08
0.766,-0.035
0.768,0.075
0.77,0.205
0.772,0.09
0.774,0.11
0.776,0.015
0.778,-0.005
0.78,-0.125
0.782,-0.095
0.784,-0.085
0.786,-0.085
0.788,0.025
0.79,0.095
0.792,0.14
0.794,0.215
0.796,0.16
0.798,-0.03
0.8,-0.115
0.802,-0.13
0.804,-0.085
0.806,0.05
0.808,-0.025
0.81,0.175
0.812,0.135
0.814,0.085
0.816,0.05
0.818,0.03
0.82,-0.16
0.822,-0.115
0.824,-0.06
0.826,-0.005
0.828,0.08
0.83,0.145
0.832,0.1
0.834,0.085
0.836,0.095
0.838,-0.025
0.84,-0.07
0.842,-0.125
0.844,-0.115
0.846,-0.04
0.848,0.02
0.85,0.15
0.852,0.205
0.854,0.125
0.856,0.085
0.858,-0.025
0.86,-0.145
0.862,-0.16
0.864,0.005
0.866,-0.01
0.868,0.07
0.87,0.18
0.872,0.165
0.874,0.065
0.876,0.02
0.878,-0.005
0.88,-0.13
0.882,-0.11
0.884,-0.095
0.886,0.105
0.888,0.02
0.89,0.08
0.892,0.105
0.894,0.03
0.896,-0.015
0.898,-0.055
0.9,-0.14
0.902,-0.085
0.904,0.04
0.906,0.04
0.908,0.025
0.91,0.215
0.912,0.125
0.914,0.065
0.916,-0.005
0.918,-0.18
0.92,-0.115
0.922,-0.005
0.924,0.02
0.926,0.095
0.928,0.11
0.93,0.135
0.932,0.105
0.934,0.02
0.936,-0.025
0.938,-0.05
0.94,-0.13
0.942,-0.095
0.944,-0.005
0.946,0
0.948,0.135
0.95,0.175
0.952,0.11
0.954,0.095
0.956,0.035
0.958,-0.07
0.96,-0.14
0.962,-0.04
0.964,0.035
0.966,0.12
0.968,0.225
0.97,0.195
0.972,0.2
0.974,0.11
0.976,0.07
0.978,-0.085
0.98,-0.115
0.982,-0.06
0.984,0.03
0.986,0.045
0.988,0.21
0.99,0.16
0.992,0.13
0.994,0.095
0.996,-0.005
0.998,-0.1
1,-0.12
1.002,-0.08
1.004,0.025
1.006,0.015
1.008,0.115
1.01,0.13
1.012,0.075
1.014,0.025
1.016,0.03
1.018,-0.1
1.02,-0.06
1.022,-0.085
1.024,-0.01
1.026,0.015
1.028,0.215
1.03,0.12
1.032,0.045
1.034,-0.03
1.036,-0.015
1.038,-0.085
1.04,-0.14
1.042,-0.175
1.044,0.05
1.046,0.105
1.048,0.285
1.05,0.23
1.052,0.46
1.054,0.52
1.056,0.6
1.058,0.61
1.06,0.55
1.062,0.53
1.064,0.605
1.066,0.57
1.068,0.815
1.07,0.785
1.072,0.69
1.074,0.5
1.076,0.33
1.078,0.07
1.08,-0.065
1.082,-0.185
1.084,-0.095
1.086,0.025
1.088,0.065
1.09,0.1
1.092,0.065
1.094,-0.05
1.096,-0.02
1.098,-0.09
1.1,-0.155
1.102,0.005
1.104,0.01
1.106,0.02
1.108,0.115
1.11,0.145
1.112,0.09
1.114,0.04
1.116,0.035
1.118,-0.145
1.12,-0.11
1.122,0.025
1.124,0.01
1.126,0.075
1.128,0.175
1.13,0.09
1.132,0.035
1.134,-0.03
1.136,0.015
1.138,-0.155
1.14,-0.125
1.142,0.01
1.144,0.04
1.146,0.115
1.148,0.125
1.15,0.18
1.152,0.035
1.154,0.01
1.156,0.015
1.158,-0.015
1.16,-0.055
1.162,-0.075
1.164,0.04
1.166,0.085
1.168,0.13
1.17,0.12
1.172,0.13
1.174,0.045
1.176,-0.025
1.178,-0.07
1.18,-0.08
1.182,0.005
1.184,0.075
1.186,0.14
1.188,0.205
1.19,0.095
1.192,0.09
1.194,0.05
1.196,-0.075
1.198,-0.075
1.2,-0.045
1.202,0.015
1.204,0.08
1.206,0.145
1.208,0.245
1.21,0.22
1.212,0.11
1.214,0.065
1.216,0.015
1.218,-0.085
1.22,-0.05
1.222,0.06
1.224,0.1
1.226,0.27
1.228,0.235
1.23,0.24
1.232,0.135
1.234,0.095
1.236,0.015
1.238,-0.015
1.24,0.08
1.242,0.145
1.244,0.145
1.246,0.3
1.248,0.26
1.25,0.29
1.252,0.205
1.254,0.22
1.256,0.225
1.258,0.135
1.26,0.09
1.262,0.24
1.264,0.35
1.266,0.46
1.268,0.445
1.27,0.395
1.272,0.285
1.274,0.3
1.276,0.165
1.278,0.24
1.28,0.23
1.282,0.285
1.284,0.345
1.286,0.4
1.288,0.47
1.29,0.38
1.292,0.27
1.294,0.23
1.296,0.2
1.298,0.245
1.3,0.23
1.302,0.29
1.304,0.24
1.306,0.375
1.308,0.355
1.31,0.415
1.312,0.28
1.314,0.185
1.316,0.035
1.318,0.07
1.32,0.08
1.322,0.135
1.324,0.215
1.326,0.295
1.328,0.265
1.33,0.2
1.332,0.105
1.334,0.09
1.336,0.06
1.338,-0.01
1.34,-0.045
1.342,0.035
1.344,0.14
1.346,0.175
1.348,0.16
1.35,0.11
1.352,0.03
1.354,0.04
1.356,-0.09
1.358,-0.075
1.36,0
1.362,0.095
1.364,0.11
1.366,0.235
1.368,0.165
1.37,0.125
1.372,0.025
1.374,-0.01
1.376,-0.125
1.378,-0.07
1.38,-0.005
1.382,0.05
1.384,0.09
1.386,0.13
1.388,0.145
1.39,0.105
1.392,0.04
1.394,0.015
1.396,-0.09
1.398,-0.04
1.4,0.01
1.402,0.06
1.404,0.045
1.406,0.175
1.408,0.165
1.41,0.145
1.412,0.055
1.414,-0.03
1.416,-0.1
1.418,-0.015
1.42,-0.055
1.422,-0.035
1.424,0.085
1.426,0.155
1.428,0.155
1.43,0.11
1.432,-0.015
1.434,-0.005
1.436,-0.03
1.438,-0.075
1.44,0.045
1.442,0.105
1.444,0.135
1.446,0.2
1.448,0.195
1.45,0.145
1.452,0.05
1.454,0.02
1.456,-0.075
1.458,-0.005
1.46,-0.06
1.462,0.035
1.464,0.11
1.466,0.175
1.468,0.155
1.47,0.055
1.472,0.1
1.474,0.005
1.476,-0.01
1.478,-0.035
1.48,0.035
1.482,0.125
1.484,0.11
1.486,0.205
1.488,0.245
1.49,0.125
1.492,0.07
1.494,0.01
1.496,0.025
1.498,0.05
1.5,-0.03
1.502,0.095
1.504,0.22
1.506,0.175
1.508,0.205
1.51,0.09
1.512,0.02
1.514,0.005
1.516,0.045
1.518,0.02
1.52,0.05
1.522,0.11
1.524,0.145
1.526,0.225
1.528,0.235
1.53,0.06
1.532,0.105
1.534,-0.025
1.536,-0.055
1.538,0.005
1.54,0.03
1.542,0.19
1.544,0.145
1.546,0.15
1.548,0.17
1.55,0.165
1.552,0.075
1.554,-0.055
1.556,-0.005
1.558,-0.045
1.56,-0.02
1.562,0.085
1.564,0.22
1.566,0.205
1.568,0.19
1.57,0.11
1.572,0.05
1.574,-0.06
1.576,-0.025
1.578,0.065
1.58,0.025
1.582,0.13
1.584,0.165
1.586,0.15
1.588,0.22
1.59,0.045
1.592,0.055
1.594,-0.05
1.596,0.005
1.598,0.03
1.6,0.055
1.602,0.12
1.604,0.235
1.606,0.27
1.608,0.17
1.61,0.085
1.612,0.005
1.614,-0.105
1.616,-0.07
1.618,-0.015
1.62,0.035
1.622,0.1
1.624,0.255
1.626,0.23
1.628,0.16
1.63,0.05
1.632,0.04
1.634,-0.085
1.636,-0.055
1.638,-0.04
1.64,0.075
1.642,0.07
1.644,0.28
1.646,0.285
1.648,0.18
1.65,0.06
1.652,0.025
1.654,-0.065
1.656,0.03
1.658,0.08
1.66,0.185
1.662,0.16
1.664,0.27
1.666,0.255
1.668,0.165
1.67,0.155
1.672,0.135
1.674,0.04
1.676,0.04
1.678,0.01
1.68,0.065
1.682,0.185
1.684,0.15
1.686,0.175
1.688,0.165
1.69,0.055
1.692,-0.01
1.694,-0.045
1.696,-0.08
1.698,-0.03
1.7,0.05
1.702,0.095
1.704,0.18
1.706,0.175
1.708,0.095
1.71,0.075
1.712,0.005
1.714,-0.09
1.716,-0.045
1.718,-0.02
1.72,0.06
1.722,0.065
1.724,0.105
1.726,0.2
1.728,0.145
1.73,0.045
1.732,-0.075
1.734,-0.085
1.736,-0.005
1.738,0.15
1.74,0.24
1.742,0.46
1.744,0.71
1.746,0.765
1.748,0.75
1.75,0.805
1.752,0.745
1.754,0.62
1.756,0.575
1.758,0.64
1.76,0.68
1.762,0.68
1.764,0.78
1.766,0.615
1.768,0.395
1.77,0.185
1.772,-0.045
1.774,-0.15
1.776,-0.12
1.778,-0.045
1.78,0.03
1.782,0.09
1.784,0.18
1.786,0.15
1.788,0.065
1.79,0.03
1.792,-0.075
1.794,-0.08
1.796,-0.045
1.798,0.04
1.8,0.04
1.802,0.105
1.804,0.22
1.806,0.18
1.808,0.155
1.81,0.03
1.812,-0.05
1.814,-0.07
1.816,-0.05
1.818,0.09
1.82,0.025
1.822,0.12
1.824,0.235
1.826,0.12
1.828,0.13
1.83,0
1.832,0.02
1.834,-0.005
1.836,-0.08
1.838,-0.03
1.84,0.025
1.842,0.12
1.844,0.19
1.846,0.125
1.848,0.11
1.85,0.05
1.852,-0.09
1.854,0.01
1.856,-0.065
1.858,0.045
1.86,0.1
1.862,0.19
1.864,0.23
1.866,0.175
1.868,0.09
1.87,0.02
1.872,-0.035
1.874,-0.015
1.876,-0.055
1.878,0.045
1.88,0.12
1.882,0.24
1.884,0.215
1.886,0.2
1.888,0.075
1.89,0.045
1.892,-0.01
1.894,0
1.896,-0.045
1.898,0.09
1.9,0.175
1.902,0.355
1.904,0.17
1.906,0.16
1.908,0.155
1.91,0.125
1.912,-0.055
1.914,-0.02
1.916,0.065
1.918,0.1
1.92,0.205
1.922,0.355
1.924,0.145
1.926,0.13
1.928,0.125
1.93,0.105
1.932,0.015
1.934,0.065
1.936,0.095
1.938,0.235
1.94,0.23
1.942,0.27
1.944,0.32
1.946,0.275
1.948,0.23
1.95,0.18
1.952,0.085
1.954,0.16
1.956,0.145
1.958,0.245
1.96,0.265
1.962,0.395
1.964,0.5
1.966,0.365
1.968,0.285
1.97,0.195
1.972,0.11
1.974,0.205
1.976,0.23
1.978,0.28
1.98,0.31
1.982,0.345
1.984,0.42
1.986,0.455
1.988,0.325
1.99,0.34
1.992,0.15
1.994,0.155
1.996,0.145
1.998,0.2
2,0.225
2.002,0.345
2.004,0.32
2.006,0.35
2.008,0.145
2.01,0.02
2.012,0.025
2.014,0.06
2.016,0.175
2.018,0.07
2.02,0.195
2.022,0.22
2.024,0.26
2.026,0.14
2.028,0.03
2.03,0.04
2.032,-0.07
2.034,-0.035
2.036,0.03
2.038,0.02
2.04,0.165
2.042,0.18
2.044,0.23
2.046,0.125
2.048,0.1
2.05,0.025
2.052,-0.02
2.054,-0.08
2.056,0.005
2.058,0.005
2.06,0.14
2.062,0.295
2.064,0.145
2.066,-0.04
2.068,0.05
2.07,0.02
2.072,-0.08
2.074,-0.07
2.076,-0.005
2.078,0.105
2.08,0.15
2.082,0.25
2.084,0.155
2.086,0.065
2.088,0.03
2.09,-0.075
2.092,0.03
2.094,-0.06
2.096,-0.01
2.098,0.1
2.1,0.125
2.102,0.165
2.104,0.205
2.106,0.07
2.108,0.01
2.11,-0.05
2.112,-0.085
2.114,-0.05
2.116,0.035
2.118,0.105
2.12,0.24
2.122,0.19
2.124,0.175
2.126,0.11
2.128,0.06
2.13,-0.105
2.132,0.055
2.134,-0.065
2.136,-0.005
2.138,0.09
2.14,0.13
2.142,0.13
2.144,0.16
2.146,0.095
2.148,-0.015
2.15,-0.14
2.152,-0.13
2.154,-0.04
2.156,0.105
2.158,0.07
2.16,0.18
2.162,0.13
2.164,0.1
2.166,0.055
2.168,0.085
2.17,-0.07
2.172,-0.105
2.174,-0.01
2.176,0.055
2.178,0.11
2.18,0.275
2.182,0.125
2.184,0.225
2.186,0.1
2.188,0.005
2.19,-0.13
2.192,-0.1
2.194,-0.08
2.196,0.005
2.198,0.115
2.2,0.25
2.202,0.2
2.204,0.105
2.206,0.075
2.208,0.045
2.21,-0.13
2.212,-0.055
2.214,-0.01
2.216,0.05
2.218,0.05
2.22,0.245
2.222,0.21
2.224,0.14
2.226,0.05
2.228,-0.005
2.23,-0.09
2.232,-0.14
2.234,-0.035
2.236,0.07
2.238,0.08
2.24,0.24
2.242,0.11
2.244,0.14
2.246,0.06
2.248,-0.01
2.25,-0.06
2.252,-0.095
2.254,-0.005
2.256,0.055
2.258,0.115
2.26,0.225
2.262,0.245
2.264,0.08
2.266,0.075
2.268,-0.015
2.27,-0.11
2.272,-0.105
2.274,-0.055
2.276,0.155
2.278,0.145
2.28,0.18
2.282,0.195
2.284,0.11
2.286,0.025
2.288,0.05
2.29,-0.035
2.292,-0.14
2.294,-0.01
2.296,0.025
2.298,0.12
2.3,0.185
2.302,0.155
2.304,0.14
2.306,0.045
2.308,-0.04
2.31,-0.06
2.312,-0.045
2.314,0.04
2.316,0.08
2.318,0.145
2.32,0.285
2.322,0.23
2.324,0.22
2.326,0.175
2.328,0.115
2.33,-0.085
2.332,-0.07
2.334,0.025
2.336,0.145
2.338,0.16
2.34,0.2
2.342,0.165
2.344,0.125
2.346,0.025
2.348,-0.03
2.35,0.005
2.352,-0.09
2.354,0
2.356,0.055
2.358,0.165
2.36,0.215
2.362,0.165
2.364,0.12
2.366,0.045
2.368,0.01
2.37,-0.085
2.372,-0.095
2.374,0.015
2.376,0.09
2.378,0.065
2.38,0.16
2.382,0.19
2.384,0.15
2.386,-0.05
2.388,-0.13
2.39,-0.065
2.392,-0.015
2.394,0.05
2.396,0.02
2.398,0.165
2.4,0.23
2.402,0.16
2.404,0.025
2.406,0.14
2.408,0.185
2.41,0.28
2.412,0.415
2.414,0.675
2.416,0.805
2.418,0.885
2.42,0.94
2.422,0.84
2.424,0.775
2.426,0.725
2.428,0.575
2.43,0.6
2.432,0.6
2.434,0.515
2.436,0.365
2.438,0.265
2.44,0.18
2.442,0.03
2.444,-0.05
2.446,0.075
2.448,-0.12
2.45,-0.085
2.452,-0.095
2.454,-0.035
2.456,0.05
2.458,0.155
2.46,0.175
2.462,0.12
2.464,0.13
2.466,0.085
2.468,-0.055
2.47,-0.075
2.472,-0.05
2.474,0.035
2.476,0.12
2.478,0.135
2.48,0.22
2.482,0.145
2.484,0.02
2.486,0.01
2.488,-0.045
2.49,-0.055
2.492,-0.035
2.494,0.045
2.496,0.155
2.498,0.25
2.5,0.185
2.502,0.155
2.504,0.03
2.506,0.08
2.508,0.025
2.51,-0.08
2.512,-0.05
2.514,0.025
2.516,0.115
2.518,0.195
2.52,0.205
2.522,0.17
2.524,0.09
2.526,0.025
2.528,0.005
2.53,-0.03
2.532,0.01
2.534,0.02
2.536,0.135
2.538,0.28
2.54,0.18
2.542,0.155
2.544,0.06
2.546,0.055
2.548,0.005
2.55,-0.015
2.552,-0.04
2.554,0.13
2.556,0.13
2.558,0.23
2.56,0.305
2.562,0.195
2.564,0.065
2.566,-0.02
2.568,-0.05
2.57,0.01
2.572,0.095
2.574,0.07
2.576,0.195
2.578,0.305
2.58,0.235
2.582,0.195
2.584,0.195
2.586,0.065
2.588,-0.01
2.59,-0.03
2.592,0.055
2.594,0.205
2.596,0.21
2.598,0.385
2.6,0.31
2.602,0.235
2.604,0.245
2.606,0.145
2.608,0.12
2.61,0.1
2.612,0.14
2.614,0.245
2.616,0.47
2.618,0.395
2.62,0.36
2.622,0.375
2.624,0.195
2.626,0.17
2.628,0.16
2.63,0.2
2.632,0.27
2.634,0.29
2.636,0.39
2.638,0.53
2.64,0.42
2.642,0.335
2.644,0.255
2.646,0.205
2.648,0.22
2.65,0.255
2.652,0.195
2.654,0.29
2.656,0.385
2.658,0.42
2.66,0.37
2.662,0.325
2.664,0.295
2.666,0.12
2.668,0.115
2.67,0.06
2.672,0.245
2.674,0.24
2.676,0.39
2.678,0.305
2.68,0.31
2.682,0.2
2.684,0.15
2.686,0.005
2.688,0.03
2.69,0.065
2.692,0.125
2.694,0.05
2.696,0.205
2.698,0.175
2.7,0.185
2.702,0.16
2.704,0.105
2.706,0
2.708,-0.05
2.71,-0.045
2.712,0.08
2.714,0.125
2.716,0.19
2.718,0.23
2.72,0.15
2.722,0.035
2.724,0.07
2.726,0
2.728,-0.055
2.73,0.02
2.732,0.1
2.734,0.08
2.736,0.22
2.738,0.165
2.74,0.155
2.742,0.095
2.744,0.05
2.746,-0.03
2.748,-0.02
2.75,-0.06
2.752,0.015
2.754,0.075
2.756,0.225
2.758,0.155
2.76,0.13
2.762,0.085
2.764,-0.005
2.766,-0.03
2.768,-0.045
2.77,-0.075
2.772,0.06
2.774,0.16
2.776,0.285
2.778,0.195
2.78,0.07
2.782,0.045
2.784,0.13
2.786,0.005
2.788,-0.125
2.79,-0.035
2.792,0.06
2.794,0.07
2.796,0.225
2.798,0.22
2.8,0.175
2.802,0.05
2.804,0.065
2.806,-0.02
2.808,-0.04
2.81,0.045
2.812,0.145
2.814,0.12
2.816,0.135
2.818,0.205
2.82,0.14
2.822,0.095
2.824,0.015
2.826,-0.035
2.828,-0.015
2.83,0.09
2.832,0.105
2.834,0.15
2.836,0.225
2.838,0.235
2.84,0.14
2.842,0.09
2.844,0.05
2.846,-0.06
2.848,0.035
2.85,0.03
2.852,0.08
2.854,0.1
2.856,0.16
2.858,0.28
2.86,0.28
2.862,0.1
2.864,0.025
2.866,-0.1
2.868,-0.005
2.87,0.005
2.872,0.125
2.874,0.175
2.876,0.175
2.878,0.2
2.88,0.15
2.882,0.1
2.884,-0.01
2.886,-0.03
2.888,0.02
2.89,0.01
2.892,0.115
2.894,0.13
2.896,0.195
2.898,0.155
2.9,0.17
2.902,0.12
2.904,0.09
2.906,-0.055
2.908,-0.09
2.91,0.045
2.912,0.2
2.914,0.17
2.916,0.195
2.918,0.17
2.92,0.23
2.922,0.13
2.924,0.045
2.926,0.01
2.928,0
2.93,0.01
2.932,0.03
2.934,0.19
2.936,0.22
2.938,0.17
2.94,0.125
2.942,0.07
2.944,0.065
2.946,-0.05
2.948,0
2.95,0.085
2.952,0.12
2.954,0.22
2.956,0.24
2.958,0.18
2.96,0.095
2.962,0.105
2.964,0.02
2.966,-0.01
2.968,0.005
2.97,0.14
2.972,0.12
2.974,0.285
2.976,0.29
2.978,0.22
2.98,0.175
2.982,0.145
2.984,0.045
2.986,0.085
2.988,0.015
2.99,0.07
2.992,0.18
2.994,0.28
2.996,0.215
2.998,0.215
3,0.155
3.002,0.14
3.004,-0.045
3.006,-0.025
3.008,-0.035
3.01,0.02
3.012,0.075
3.014,0.19
3.016,0.215
3.018,0.21
3.02,0.07
3.022,0.05
3.024,0.08
3.026,-0.025
3.028,-0.02
3.03,0.055
3.032,0.105
3.034,0.195
3.036,0.155
3.038,0.115
3.04,0.105
3.042,0.035
3.044,-0.15
3.046,-0.11
3.048,-0.05
3.05,0.1
3.052,0.185
3.054,0.38
3.056,0.48
3.058,0.57
3.06,0.66
3.062,0.75
3.064,0.81
3.066,0.79
3.068,0.795
3.07,0.81
3.072,0.8
3.074,0.86
3.076,0.9
3.078,0.865
3.08,0.615
3.082,0.405
3.084,0.135
3.086,-0.035
3.088,-0.075
3.09,0.05
3.092,0.015
3.094,0.155
3.096,0.135
3.098,0.215
3.1,0.05
3.102,-0.055
3.104,-0.045
3.106,-0.04
3.108,-0.02
3.11,0.11
3.112,0.14
3.114,0.235
3.116,0.21
3.118,0.125
3.12,0.06
3.122,0.095
3.124,-0.02
3.126,-0.075
3.128,-0.045
3.13,0.04
3.132,0.105
3.134,0.185
3.136,0.19
3.138,0.15
3.14,0.035
3.142,0.055
3.144,-0.015
3.146,-0.075
3.148,0.055
3.15,0.075
3.152,0.125
3.154,0.255
3.156,0.265
3.158,0.22
3.16,0.12
3.162,-0.025
3.164,-0.08
3.166,0.03
3.168,0.045
3.17,0.12
3.172,0.285
3.174,0.265
3.176,0.345
3.178,0.1
3.18,0.065
3.182,0.045
3.184,-0.035
3.186,-0.06
3.188,0.08
3.19,0.155
3.192,0.14
3.194,0.24
3.196,0.23
3.198,0.115
3.2,0.185
3.202,0.06
3.204,-0.045
3.206,-0.005
3.208,0.17
3.21,0.175
3.212,0.225
3.214,0.245
3.216,0.24
3.218,0.19
3.22,0.165
3.222,0.03
3.224,0.045
3.226,0.05
3.228,0.055
3.23,0.205
3.232,0.28
3.234,0.295
3.236,0.26
3.238,0.215
3.24,0.21
3.242,0.065
3.244,0.095
3.246,0.105
3.248,0.21
3.25,0.2
3.252,0.25
3.254,0.36
3.256,0.405
3.258,0.37
3.26,0.22
3.262,0.215
3.264,0.235
3.266,0.2
3.268,0.27
3.27,0.35
3.272,0.41
3.274,0.415
3.276,0.445
3.278,0.33
3.28,0.33
3.282,0.2
3.284,0.245
3.286,0.31
3.288,0.415
3.29,0.425
3.292,0.43
3.294,0.51
3.296,0.39
3.298,0.35
3.3,0.355
3.302,0.125
3.304,0.18
3.306,0.135
3.308,0.24
3.31,0.39
3.312,0.42
3.314,0.335
3.316,0.37
3.318,0.255
3.32,0.23
3.322,0.13
3.324,0.15
3.326,0.09
3.328,0.18
3.33,0.225
3.332,0.345
3.334,0.325
3.336,0.18
3.338,0.095
3.34,0.06
3.342,0.01
3.344,-0.015
3.346,0.015
3.348,0.175
3.35,0.12
3.352,0.235
3.354,0.23
3.356,0.215
3.358,0.065
3.36,0.065
3.362,-0.015
3.364,0.01
3.366,-0.03
3.368,0.075
3.37,0.125
3.372,0.21
3.374,0.22
3.376,0.15
3.378,0.03
3.38,0.055
3.382,-0.005
3.384,-0.035
3.386,-0.045
3.388,0.115
3.39,0.165
3.392,0.24
3.394,0.17
3.396,0.245
3.398,0.09
3.4,0.055
3.402,-0.09
3.404,-0.055
3.406,0.005
3.408,0.075
3.41,0.15
3.412,0.225
3.414,0.135
3.416,0.14
3.418,0.155
3.42,0.01
3.422,0.005
3.424,-0.025
3.426,0.065
3.428,0.055
3.43,0.135
3.432,0.225
3.434,0.195
3.436,0.155
3.438,0.06
3.44,0.16
3.442,0.045
3.444,-0.04
3.446,0.025
3.448,0.1
3.45,0.125
3.452,0.25
3.454,0.295
3.456,0.09
3.458,0.065
3.46,0.075
3.462,0.025
3.464,0.015
3.466,0.04
3.468,0.1
3.47,0.175
3.472,0.225
3.474,0.27
3.476,0.2
3.478,0.12
3.48,-0.05
3.482,-0.07
3.484,-0.005
3.486,0.07
3.488,0.11
3.49,0.145
3.492,0.27
3.494,0.195
3.496,0.165
3.498,0.115
3.5,-0.04
3.502,-0.005
3.504,0.03
3.506,0.02
3.508,0.145
3.51,0.205
3.512,0.225
3.514,0.235
3.516,0.12
3.518,0.08
3.52,0.02
3.522,-0.07
3.524,0.06
3.526,0.17
3.528,0.145
3.53,0.195
3.532,0.18
3.534,0.2
3.536,0.14
3.538,-0.01
3.54,-0.055
3.542,0.05
3.544,-0.11
3.546,0.015
3.548,0.15
3.55,0.235
3.552,0.19
3.554,0.25
3.556,0.115
3.558,0.07
3.56,-0.075
3.562,-0.07
3.564,-0.085
3.566,0.08
3.568,0.115
3.57,0.265
3.572,0.285
3.574,0.22
3.576,0.16
3.578,0.045
3.58,-0.025
3.582,-0.015
3.584,0.02
3.586,0.14
3.588,0.165
3.59,0.18
3.592,0.17
3.594,0.185
3.596,0.045
3.598,0.06
3.6,0
3.602,0.01
3.604,0.03
3.606,0.09
3.608,0.155
3.61,0.37
3.612,0.245
3.614,0.27
3.616,0.17
3.618,0.1
3.62,-0.04
3.622,0.045
3.624,0.09
3.626,0.095
3.628,0.19
3.63,0.275
3.632,0.23
3.634,0.21
3.636,0.13
3.638,0.135
3.64,-0.065
3.642,-0.055
3.644,-0.045
3.646,0.065
3.648,0.03
3.65,0.17
3.652,0.265
3.654,0.195
3.656,0.075
3.658,0.105
3.66,-0.005
3.662,-0.04
3.664,0.025
3.666,0.17
3.668,0.06
3.67,0.16
3.672,0.22
3.674,0.135
3.676,0.01
3.678,-0.005
3.68,-0.115
3.682,-0.12
3.684,-0.035
3.686,-0.005
3.688,0.035
3.69,0.225
3.692,0.32
3.694,0.345
3.696,0.325
3.698,0.4
3.7,0.6
3.702,0.73
3.704,0.83
3.706,0.9
3.708,0.835
3.71,0.985
3.712,0.84
3.714,0.775
3.716,0.785
3.718,0.655
3.72,0.46
3.722,0.215
3.724,0.115
3.726,0.125
3.728,0.055
3.73,0.095
3.732,0.09
3.734,0.06
3.736,0.05
3.738,0.02
3.74,-0.075
3.742,-0.07
3.744,-0.005
3.746,0.14
3.748,0.115
3.75,0.195
3.752,0.205
3.754,0.095
3.756,0.035
3.758,0.005
3.76,-0.02
3.762,-0.065
3.764,0.065
3.766,0.075
3.768,0.085
3.77,0.26
3.772,0.18
3.774,0.055
3.776,0.06
3.778,-0.045
3.78,0.01
3.782,-0.06
3.784,-0.015
3.786,0.095
3.788,0.145
3.79,0.195
3.792,0.165
3.794,0.115
3.796,0.14
3.798,-0.02
3.8,-0.105
3.802,0.015
3.804,0.11
3.806,0.08
3.808,0.175
3.81,0.285
3.812,0.17
3.814,0.035
3.816,0.075
3.818,0.03
3.82,0.02
3.822,-0.005
3.824,-0.005
3.826,0.055
3.828,0.155
3.83,0.255
3.832,0.21
3.834,0.115
3.836,0.145
3.838,-0.01
3.84,0
3.842,-0.055
3.844,0.03
3.846,0.115
3.848,0.235
3.85,0.235
3.852,0.19
3.854,0.13
3.856,0.13
3.858,0.025
3.86,-0.01
3.862,0.02
3.864,0.185
3.866,0.16
3.868,0.245
3.87,0.295
3.872,0.275
3.874,0.115
3.876,0.175
3.878,0.05
3.88,0.05
3.882,0.06
3.884,0.12
3.886,0.13
3.888,0.325
3.89,0.375
3.892,0.28
3.894,0.305
3.896,0.175
3.898,0.1
3.9,0.08
3.902,0.245
3.904,0.285
3.906,0.255
3.908,0.39
3.91,0.355
3.912,0.36
3.914,0.315
3.916,0.385
3.918,0.16
3.92,0.22
3.922,0.275
3.924,0.325
3.926,0.315
3.928,0.43
3.93,0.425
3.932,0.415
3.934,0.3
3.936,0.25
3.938,0.11
3.94,0.14
3.942,0.21
3.944,0.345
3.946,0.295
3.948,0.375
3.95,0.37
3.952,0.26
3.954,0.185
3.956,0.19
3.958,0.07
3.96,0.085
3.962,0.145
3.964,0.165
3.966,0.215
3.968,0.38
3.97,0.265
3.972,0.24
3.974,0.08
3.976,0.05
3.978,0.015
3.98,-0.055
3.982,-0.045
3.984,0.15
3.986,0.07
3.988,0.16
3.99,0.265
3.992,0.23
3.994,0
3.996,0.06
3.998,0.035
4,0.005
4.002,-0.05
4.004,0.045
4.006,0.155
4.008,0.16
4.01,0.185
4.012,0.125
4.014,-0.04
4.016,-0.045
4.018,-0.08
4.02,-0.065
4.022,-0.005
4.024,0.055
4.026,0.11
4.028,0.185
4.03,0.16
4.032,0.14
4.034,0.015
4.036,-0.04
4.038,-0.125
4.04,-0.125
4.042,-0.025
4.044,0.095
4.046,0.185
4.048,0.24
4.05,0.22
4.052,0.05
4.054,0
4.056,-0.02
4.058,-0.065
4.06,-0.055
4.062,0.03
4.064,0.135
4.066,0.15
4.068,0.165
4.07,0.155
4.072,0.1
4.074,0.045
4.076,-0.055
4.078,-0.08
4.08,-0.04
4.082,0.09
4.084,0.085
4.086,0.09
4.088,0.17
4.09,0.215
4.092,0.07
4.094,0.03
4.096,-0.045
4.098,0.06
4.1,-0.09
4.102,-0.01
4.104,0.115
4.106,0.22
4.108,0.215
4.11,0.14
4.112,0.145
4.114,0.09
4.116,-0.025
4.118,-0.085
4.12,-0.04
4.122,0.07
4.124,0.115
4.126,0.175
4.128,0.18
4.13,0.17
4.132,0.13
4.134,0.135
4.136,-0.03
4.138,-0.055
4.14,0.05
4.142,0.015
4.144,0.045
4.146,0.17
4.148,0.22
4.15,0.17
4.152,0.145
4.154,0.06
4.156,-0.02
4.158,-0.015
4.16,-0.045
4.162,0.01
4.164,0.135
4.166,0.135
4.168,0.175
4.17,0.15
4.172,0.1
4.174,0.065
4.176,-0.075
4.178,-0.065
4.18,-0.035
4.182,0.075
4.184,0.11
4.186,0.165
4.188,0.17
4.19,0.32
4.192,0.095
4.194,0.035
4.196,-0.045
4.198,0.005
4.2,-0.015
4.202,0.135
4.204,0.1
4.206,0.18
4.208,0.175
4.21,0.18
4.212,0.14
4.214,0.065
4.216,-0.07
4.218,-0.12
4.22,0.02
4.222,0.115
4.224,0.13
4.226,0.24
4.228,0.21
4.23,0.185
4.232,0.135
4.234,0.05
4.236,-0.03
4.238,-0.04
4.24,0.05
4.242,0.055
4.244,0.135
4.246,0.265
4.248,0.26
4.25,0.2
4.252,0.14
4.254,0.055
4.256,-0.095
4.258,-0.065
4.26,0.02
4.262,0.175
4.264,0.135
4.266,0.14
4.268,0.235
4.27,0.165
4.272,0.08
4.274,-0.015
4.276,-0.11
4.278,0.005
4.28,0.025
4.282,0.09
4.284,0.155
4.286,0.195
4.288,0.155
4.29,0.205
4.292,0.04
4.294,-0.04
4.296,-0.125
4.298,-0.075
4.3,-0.055
4.302,0.07
4.304,0.095
4.306,0.155
4.308,0.15
4.31,0.085
4.312,0.015
4.314,-0.05
4.316,-0.135
4.318,-0.065
4.32,0.06
4.322,0.155
4.324,0.23
4.326,0.44
4.328,0.605
4.33,0.705
4.332,0.745
4.334,0.725
4.336,0.6
4.338,0.64
4.34,0.675
4.342,0.78
4.344,0.765
4.346,0.675
4.348,0.6
4.35,0.41
4.352,0.225
4.354,-0.025
4.356,-0.17
4.358,-0.175
4.36,-0.14
4.362,0.02
4.364,0.025
4.366,0.125
4.368,0.13
4.37,0.07
4.372,-0.02
4.374,-0.11
4.376,-0.08
4.378,-0.11
4.38,0.02
4.382,0.06
4.384,0.075
4.386,0.19
4.388,0.165
4.39,0.07
4.392,0.005
4.394,-0.09
4.396,-0.05
4.398,-0.01
4.4,-0.015
4.402,0.005
4.404,0.245
4.406,0.265
4.408,0.17
4.41,0.145
4.412,0.06
4.414,-0.13
4.416,-0.035
4.418,-0.035
4.42,0
4.422,0.13
4.424,0.155
4.426,0.16
4.428,0.15
4.43,0.095
4.432,0.13
4.434,-0.02
4.436,-0.01
4.438,-0.025
4.44,0.095
4.442,0.09
4.444,0.225
4.446,0.185
4.448,0.19
4.45,0.065
4.452,0.065
4.454,-0.095
4.456,-0.055
4.458,0.035
4.46,0.15
4.462,0.16
4.464,0.275
4.466,0.255
4.468,0.145
4.47,0.08
4.472,0.03
4.474,-0.025
4.476,0.045
4.478,-0.03
4.48,0.12
4.482,0.1
4.484,0.185
4.486,0.255
4.488,0.22
4.49,0.185
4.492,0.135
4.494,0.025
4.496,0.035
4.498,0.04
4.5,0.13
4.502,0.22
4.504,0.335
4.506,0.375
4.508,0.215
4.51,0.105
4.512,0.12
4.514,0.035
4.516,0.095
4.518,0.19
4.52,0.27
4.522,0.275
4.524,0.395
4.526,0.47
4.528,0.395
4.53,0.265
4.532,0.225
4.534,0.11
4.536,0.175
4.538,0.27
4.54,0.25
4.542,0.325
4.544,0.42
4.546,0.455
4.548,0.425
4.55,0.345
4.552,0.3
4.554,0.21
4.556,0.22
4.558,0.265
4.56,0.37
4.562,0.38
4.564,0.46
4.566,0.475
4.568,0.4
4.57,0.25
4.572,0.25
4.574,0.205
4.576,0.185
4.578,0.205
4.58,0.32
4.582,0.37
4.584,0.395
4.586,0.36
4.588,0.295
4.59,0.145
4.592,0.19
4.594,0.135
4.596,0.01
4.598,0.12
4.6,0.03
4.602,-0.055
4.604,-0.055
4.606,-0.005
4.608,0.065
4.61,0.175
4.612,0.185
4.614,0.195
4.616,0.17
4.618,0.05
4.62,0.035
4.622,-0.05
4.624,-0.035
4.626,0.01
4.628,0.06
4.63,0.16
4.632,0.235
4.634,0.15
4.636,0.07
4.638,0.05
4.64,0.035
4.642,-0.045
4.644,-0.05
4.646,0.07
4.648,0.05
4.65,0.13
4.652,0.175
4.654,0.155
4.656,0.105
4.658,0.09
4.66,-0.08
4.662,-0.01
4.664,-0.09
4.666,-0.03
4.668,0.1
4.67,0.21
4.672,0.205
4.674,0.205
4.676,0.05
4.678,0.09
4.68,-0.06
4.682,-0.005
4.684,-0.05
4.686,0.04
4.688,0.065
4.69,0.145
4.692,0.205
4.694,0.165
4.696,0.07
4.698,0.05
4.7,0.015
4.702,-0.11
4.704,-0.045
4.706,0.02
4.708,0.11
4.71,0.255
4.712,0.185
4.714,0.11
4.716,0.15
4.718,0.075
4.72,-0.015
4.722,-0.035
4.724,-0.02
4.726,0.055
4.728,0.085
4.73,0.235
4.732,0.21
4.734,0.255
4.736,0.115
4.738,0.08
4.74,0.01
4.742,-0.025
4.744,0.015
4.746,0.045
4.748,0
4.75,0.17
4.752,0.21
4.754,0.21
4.756,0.165
4.758,0.085
4.76,-0.135
4.762,-0.03
4.764,0.02
4.766,0.07
4.768,0.145
4.77,0.3
4.772,0.215
4.774,0.17
4.776,0.175
4.778,0.075
4.78,0.005
4.782,0.01
4.784,-0.055
4.786,0.055
4.788,0.1
4.79,0.245
4.792,0.28
4.794,0.165
4.796,0.155
4.798,0.075
4.8,-0.025
4.802,-0.08
4.804,0.005
4.806,0.07
4.808,0.09
4.81,0.24
4.812,0.27
4.814,0.245
4.816,0.1
4.818,0.135
4.82,0.01
4.822,-0.07
4.824,0.1
4.826,0.18
4.828,0.15
4.83,0.22
4.832,0.245
4.834,0.15
4.836,0.16
4.838,0.11
4.84,0.05
4.842,0.05
4.844,0.04
4.846,0.085
4.848,0.165
4.85,0.245
4.852,0.22
4.854,0.215
4.856,0.065
4.858,0.01
4.86,0.03
4.862,0.035
4.864,0.1
4.866,0.1
4.868,0.13
4.87,0.3
4.872,0.27
4.874,0.11
4.876,0.045
4.878,0.11
4.88,-0.05
4.882,-0.085
4.884,0.015
4.886,0.105
4.888,0.085
4.89,0.145
4.892,0.22
4.894,0.105
4.896,0.06
4.898,-0.02
4.9,-0.045
4.902,-0.08
4.904,0.07
4.906,0.07
4.908,0.085
4.91,0.195
4.912,0.11
4.914,0.11
4.916,0.2
4.918,0.085
4.92,0.19
4.922,0.38
4.924,0.57
4.926,0.765
4.928,0.865
4.93,0.91
4.932,0.825
4.934,0.77
4.936,0.685
4.938,0.645
4.94,0.635
4.942,0.5
4.944,0.45
4.946,0.37
4.948,0.29
4.95,0.09
4.952,0.055
4.954,0.04
4.956,0
4.958,-0.1
4.96,-0.095
4.962,-0.085
4.964,0.06
4.966,0.01
4.968,0.115
4.97,0.24
4.972,0.21
4.974,0.055
4.976,0.05
4.978,-0.085
4.98,-0.13
4.982,-0.07
4.984,0.03
4.986,0.06
4.988,0.205
4.99,0.17
4.992,0.14
4.994,0.11
4.996,0.09
4.998,-0.08
5,-0.035
5.002,0.01
5.004,0.065
5.006,0.155
5.008,0.28
5.01,0.265
5.012,0.195
5.014,0.095
5.016,0.025
5.018,-0.075
5.02,-0.045
5.022,-0.03
5.024,-0.02
5.026,0.035
5.028,0.18
5.03,0.25
5.032,0.21
5.034,0.115
5.036,0.095
5.038,-0.065
5.04,-0.02
5.042,0.02
5.044,0.07
5.046,0.08
5.048,0.245
5.05,0.25
5.052,0.26
5.054,0.26
5.056,0.015
5.058,0.04
5.06,0.005
5.062,0.005
5.064,0.08
5.066,0.14
5.068,0.2
5.07,0.185
5.072,0.145
5.074,0.2
5.076,0.185
5.078,0.035
5.08,0.015
5.082,0
5.084,0.105
5.086,0.13
5.088,0.28
5.09,0.285
5.092,0.24
5.094,0.12
5.096,0.115
5.098,0.065
5.1,0.025
5.102,0.01
5.104,0.16
5.106,0.225
5.108,0.375
5.11,0.29
5.112,0.245
5.114,0.235
5.116,0.2
5.118,0.12
5.12,0.145
5.122,0.21
5.124,0.33
5.126,0.32
5.128,0.385
5.13,0.48
5.132,0.315
5.134,0.245
5.136,0.265
5.138,0.23
5.14,0.21
5.142,0.2
5.144,0.375
5.146,0.5
5.148,0.4
5.15,0.39
5.152,0.385
5.154,0.31
5.156,0.25
5.158,0.24
5.16,0.195
5.162,0.295
5.164,0.35
5.166,0.325
5.168,0.41
5.17,0.345
5.172,0.335
5.174,0.255
5.176,0.17
5.178,0.13
5.18,0.085
5.182,0.235
5.184,0.155
5.186,0.245
5.188,0.36
5.19,0.335
5.192,0.26
5.194,0.16
5.196,0.105
5.198,0.04
5.2,-0.045
5.202,0.055
5.204,0.215
5.206,0.25
5.208,0.2
5.21,0.245
5.212,0.205
5.214,0.045
5.216,-0.035
5.218,-0.04
5.22,0.01
5.222,0.02
5.224,0.105
5.226,0.155
5.228,0.185
5.23,0.175
5.232,0.135
5.234,0.015
5.236,-0.045
5.238,-0.03
5.24,0.01
5.242,0.085
5.244,0.07
5.246,0.17
5.248,0.195
5.25,0.21
5.252,0.075
5.254,0.03
5.256,-0.105
5.258,-0.045
5.26,-0.025
5.262,0.02
5.264,0.07
5.266,0.185
5.268,0.18
5.27,0.1
5.272,0.135
5.274,0.085
5.276,-0.05
5.278,-0.04
5.28,-0.055
5.282,0.025
5.284,0.085
5.286,0.195
5.288,0.175
5.29,0.135
5.292,0.09
5.294,0.115
5.296,-0.12
5.298,-0.08
5.3,-0.035
5.302,0.1
5.304,0.16
5.306,0.205
5.308,0.175
5.31,0.255
5.312,0.135
5.314,0.015
5.316,-0.06
5.318,-0.08
5.32,-0.01
5.322,0.045
5.324,0.125
5.326,0.195
5.328,0.24
5.33,0.145
5.332,0.13
5.334,0.135
5.336,-0.055
5.338,-0.01
5.34,0.07
5.342,0.085
5.344,0.04
5.346,0.19
5.348,0.295
5.35,0.19
5.352,0.13
5.354,0.09
5.356,-0.05
5.358,-0.045
5.36,-0.04
5.362,0.05
5.364,0.125
5.366,0.25
5.368,0.165
5.37,0.155
5.372,0.09
5.374,0.05
5.376,-0.025
5.378,-0.1
5.38,-0.075
5.382,0.105
5.384,0.16
5.386,0.26
5.388,0.185
5.39,0.205
5.392,0.11
5.394,0.05
5.396,-0.015
5.398,-0.005
5.4,-0.005
5.402,0.04
5.404,0.165
5.406,0.185
5.408,0.24
5.41,0.215
5.412,0.195
5.414,0.045
5.416,0.045
5.418,-0.04
5.42,-0.02
5.422,0.08
5.424,0.115
5.426,0.245
5.428,0.18
5.43,0.1
5.432,0.08
5.434,0.05
5.436,0.02
5.438,0.035
5.44,-0.025
5.442,0.065
5.444,0.105
5.446,0.28
5.448,0.23
5.45,0.15
5.452,0.125
5.454,0.04
5.456,0.015
5.458,-0.015
5.46,0.04
5.462,0.17
5.464,0.235
5.466,0.235
5.468,0.31
5.47,0.15
5.472,0.11
5.474,0.015
5.476,-0.055
5.478,-0.055
5.48,-0.035
5.482,0.135
5.484,0.225
5.486,0.225
5.488,0.17
5.49,0.14
5.492,0.06
5.494,-0.03
5.496,-0.11
5.498,-0.09
5.5,0.045
5.502,0.075
5.504,0.145
5.506,0.185
5.508,0.135
5.51,0.075
5.512,0.055
5.514,-0.065
5.516,-0.095
5.518,-0.125
5.52,-0.045
5.522,0.01
5.524,0.205
5.526,0.175
5.528,0.2
5.53,0.27
5.532,0.285
5.534,0.285
5.536,0.465
5.538,0.65
5.54,0.745
5.542,0.79
5.544,0.86
5.546,0.88
5.548,0.82
5.55,0.79
5.552,0.695
5.554,0.61
5.556,0.485
5.558,0.37
5.56,0.28
5.562,0.14
5.564,0.175
5.566,0.01
5.568,0.05
5.57,0.055
5.572,0.04
5.574,-0.07
5.576,-0.12
5.578,-0.045
5.58,0.05
5.582,0.05
5.584,0.175
5.586,0.225
5.588,0.18
5.59,-0.01
5.592,0
5.594,-0.085
5.596,-0.09
5.598,-0.045
5.6,0.075
5.602,0.16
5.604,0.205
5.606,0.2
5.608,0.16
5.61,0.1
5.612,0.055
5.614,-0.03
5.616,-0.055
5.618,0.01
5.62,0.125
5.622,0.075
5.624,0.19
5.626,0.155
5.628,0.145
5.63,0.135
5.632,0.125
5.634,-0.1
5.636,0.05
5.638,0.01
5.64,0.13
5.642,0.035
5.644,0.165
5.646,0.215
5.648,0.185
5.65,0.09
5.652,0.065
5.654,-0.02
5.656,-0.055
5.658,-0.035
5.66,0.055
5.662,0.1
5.664,0.215
5.666,0.2
5.668,0.195
5.67,0.145
5.672,0.08
5.674,0
5.676,0.015
5.678,0.095
5.68,0.09
5.682,0.14
5.684,0.365
5.686,0.17
5.688,0.185
5.69,0.145
5.692,0.11
5.694,-0.07
5.696,-0.05
5.698,0.08
5.7,0.175
5.702,0.165
5.704,0.22
5.706,0.26
5.708,0.305
5.71,0.1
5.712,0.08
5.714,-0.035
5.716,0.055
5.718,0.06
5.72,0.14
5.722,0.2
5.724,0.355
5.726,0.285
5.728,0.33
5.73,0.215
5.732,0.155
5.734,0.065
5.736,0.075
5.738,0.125
5.74,0.22
5.742,0.31
5.744,0.355
5.746,0.355
5.748,0.35
5.75,0.31
5.752,0.2
5.754,0.08
5.756,0.15
5.758,0.22
5.76,0.25
5.762,0.41
5.764,0.43
5.766,0.385
5.768,0.245
5.77,0.225
5.772,0.19
5.774,0.08
5.776,0.165
5.778,0.235
5.78,0.285
5.782,0.335
5.784,0.33
5.786,0.315
5.788,0.235
5.79,0.21
5.792,0.07
5.794,0.08
5.796,0.09
5.798,0.12
5.8,0.185
5.802,0.31
5.804,0.25
5.806,0.2
5.808,0.1
5.81,0.08
5.812,0.035
5.814,-0.025
5.816,-0.075
5.818,0.1
5.82,0.08
5.822,0.19
5.824,0.17
5.826,0.115
5.828,0.105
5.83,0.025
5.832,-0.07
5.834,-0.06
5.836,-0.085
5.838,0.085
5.84,0.005
5.842,0.145
5.844,0.145
5.846,0.175
5.848,0.03
5.85,0.015
5.852,-0.05
5.854,-0.105
5.856,-0.04
5.858,0.065
5.86,0.05
5.862,0.12
5.864,0.165
5.866,0.175
5.868,0.09
5.87,0
5.872,-0.065
5.874,-0.105
5.876,-0.025
5.878,0.02
5.88,0.06
5.882,0.25
5.884,0.145
5.886,0.08
5.888,0.045
5.89,-0.025
5.892,-0.105
5.894,-0.09
5.896,-0.075
5.898,0.04
5.9,0.07
5.902,0.145
5.904,0.155
5.906,0.15
5.908,0.195
5.91,0.06
5.912,-0.155
5.914,-0.12
5.916,-0.055
5.918,0.025
5.92,0.12
5.922,0.15
5.924,0.205
5.926,0.04
5.928,0.045
5.93,-0.015
5.932,-0.02
5.934,-0.005
5.936,-0.065
5.938,0.055
5.94,0
5.942,0.1
5.944,0.15
5.946,0.11
5.948,0.015
5.95,-0.035
5.952,-0.1
5.954,0.01
5.956,-0.04
5.958,0.035
5.96,0.13
5.962,0.235
5.964,0.135
5.966,0.09
5.968,0.04
5.97,0.035
5.972,-0.045
5.974,-0.095
5.976,-0.01
5.978,-0.01
5.98,0.065
5.982,0.195
5.984,0.16
5.986,0.185
5.988,0.045
5.99,0
5.992,-0.065
5.994,-0.125
5.996,-0.045
5.998,0.045
6,0.105
6.002,0.145
6.004,0.17
6.006,0.125
6.008,0.005
6.01,-0.005
6.012,-0.1
6.014,-0.075
6.016,-0.075
6.018,0.035
6.02,0.07
6.022,0.14
6.024,0.21
6.026,0.115
6.028,0.005
6.03,-0.04
6.032,-0.06
6.034,-0.045
6.036,-0.015
6.038,0.025
6.04,0.165
6.042,0.135
6.044,0.165
6.046,0.135
6.048,-0.01
6.05,-0.035
6.052,-0.05
6.054,-0.135
6.056,0
6.058,0.06
6.06,0.085
6.062,0.18
6.064,0.185
6.066,0.17
6.068,-0.045
6.07,-0.025
6.072,-0.055
6.074,-0.085
6.076,-0.005
6.078,0.12
6.08,0.115
6.082,0.185
6.084,0.09
6.086,0.045
6.088,0.065
6.09,-0.025
6.092,-0.07
6.094,-0.08
6.096,0.025
6.098,0.08
6.1,0.18
6.102,0.26
6.104,0.19
6.106,0.09
6.108,0.105
6.11,-0.025
6.112,-0.115
6.114,-0.04
6.116,0.065
6.118,0.085
6.12,0.2
6.122,0.155
6.124,0.205
6.126,0.065
6.128,0.025
6.13,-0.12
6.132,-0.195
6.134,-0.07
6.136,0.02
6.138,0.035
6.14,0.16
6.142,0.08
6.144,0.11
6.146,0.065
6.148,0.03
6.15,-0.085
6.152,-0.09
6.154,-0.035
6.156,-0.065
6.158,-0.025
6.16,0.165
6.162,0.195
6.164,0.1
6.166,-0.02
6.168,-0.06
6.17,-0.215
6.172,-0.11
6.174,-0.04
6.176,0.055
6.178,0.11
6.18,0.385
6.182,0.585
6.184,0.635
6.186,0.695
6.188,0.75
6.19,0.515
6.192,0.475
6.194,0.54
6.196,0.625
6.198,0.625
6.2,0.675
6.202,0.71
6.204,0.61
6.206,0.44
6.208,0.22
6.21,-0.005
6.212,-0.075
6.214,-0.15
6.216,0.015
6.218,0.005
6.22,0.11
6.222,0.1
6.224,0.11
6.226,0.025
6.228,0.02
6.23,-0.145
6.232,-0.135
6.234,0.01
6.236,-0.035
6.238,0.03
6.24,0.235
6.242,0.1
6.244,0.055
6.246,0.03
6.248,-0.01
6.25,-0.125
6.252,-0.1
6.254,-0.09
6.256,-0.015
6.258,0.045
6.26,0.115
6.262,0.095
6.264,0.15
6.266,0.025
6.268,-0.02
6.27,-0.11
6.272,-0.075
6.274,0
6.276,0.01
6.278,0.07
6.28,0.17
6.282,0.115
6.284,0.02
6.286,0.04
6.288,-0.06
6.29,-0.015
6.292,-0.005
6.294,-0.035
6.296,0.035
6.298,0.075
6.3,0.165
6.302,0.145
6.304,0.155
6.306,-0.015
6.308,-0.07
6.31,-0.075
6.312,-0.06
6.314,0.02
6.316,0.07
6.318,0.09
6.32,0.195
6.322,0.13
6.324,0.06
6.326,0.055
6.328,0.02
6.33,-0.06
6.332,-0.055
6.334,-0.03
6.336,0.07
6.338,0.12
6.34,0.145
6.342,0.12
6.344,0.125
6.346,0.095
6.348,-0.015
6.35,-0.075
6.352,-0.02
6.354,0.055
6.356,0.095
6.358,0.205
6.36,0.235
6.362,0.25
6.364,0.095
6.366,0.07
6.368,0.02
6.37,0.045
6.372,0.025
6.374,0.06
6.376,0.125
6.378,0.18
6.38,0.29
6.382,0.28
6.384,0.185
6.386,0.16
6.388,0.105
6.39,0.04
6.392,0.095
6.394,0.16
6.396,0.275
6.398,0.255
6.4,0.34
6.402,0.32
6.404,0.185
6.406,0.225
6.408,0.12
6.41,0.08
6.412,0.18
6.414,0.23
6.416,0.27
6.418,0.345
6.42,0.26
6.422,0.275
6.424,0.21
6.426,0.16
6.428,0.03
6.43,0.08
6.432,0.07
6.434,0.18
6.436,0.255
6.438,0.27
6.44,0.36
6.442,0.295
6.444,0.1
6.446,0.11
6.448,-0.005
6.45,-0.075
6.452,0.045
6.454,0.05
6.456,0.095
6.458,0.22
6.46,0.295
6.462,0.09
6.464,-0.02
6.466,0.02
6.468,-0.055
6.47,-0.1
6.472,0.02
6.474,0.085
6.476,0.015
6.478,0.225
6.48,0.205
6.482,-0.045
6.484,-0.005
6.486,0.07
6.488,-0.16
6.49,-0.17
6.492,-0.055
6.494,-0.035
6.496,-0.01
6.498,0.145
6.5,0.115
6.502,0.09
6.504,0.025
6.506,0.005
6.508,-0.165
6.51,-0.125
6.512,-0.095
6.514,-0.025
6.516,0.025
6.518,0.185
6.52,0.15
6.522,0.11
6.524,0.045
6.526,-0.015
6.528,-0.055
6.53,-0.14
6.532,-0.055
6.534,0.03
6.536,0.02
6.538,0.155
6.54,0.08
6.542,0.085
6.544,0.08
6.546,-0.025
6.548,-0.14
6.55,-0.075
6.552,-0.01
6.554,-0.035
6.556,0.03
6.558,0.17
6.56,0.13
6.562,0.14
6.564,0.085
6.566,-0.03
6.568,-0.105
6.57,-0.095
6.572,-0.015
6.574,-0.01
6.576,0.02
6.578,0.135
6.58,0.105
6.582,0.095
6.584,-0.005
6.586,-0.075
6.588,-0.13
6.59,-0.005
6.592,-0.015
6.594,0.035
6.596,0.095
6.598,0.07
6.6,0.145
6.602,0.12
6.604,0.01
6.606,-0.065
6.608,-0.11
6.61,-0.055
6.612,-0.02
6.614,0.025
6.616,0.11
6.618,0.17
6.62,0.145
6.622,0.065
6.624,0.055
6.626,-0.07
6.628,-0.08
6.63,-0.045
6.632,0.015
6.634,-0.005
6.636,0.1
6.638,0.105
6.64,0.135
6.642,0.075
6.644,-0.005
6.646,-0.07
6.648,-0.115
6.65,-0.07
6.652,-0.045
6.654,0.075
6.656,0.165
6.658,0.11
6.66,0.175
6.662,0.065
6.664,0.04
6.666,-0.065
6.668,-0.095
6.67,-0.1
6.672,0
6.674,0.065
6.676,0.095
6.678,0.14
6.68,0.22
6.682,0.06
6.684,-0.055
6.686,-0.06
6.688,-0.05
6.69,-0.06
6.692,-0.025
6.694,0.02
6.696,0.15
6.698,0.165
6.7,0.205
6.702,0.11
6.704,0.02
6.706,-0.08
6.708,-0.095
6.71,-0.095
6.712,-0.04
6.714,-0.005
6.716,0.11
6.718,0.14
6.72,0.135
6.722,0.055
6.724,0.05
6.726,-0.155
6.728,-0.055
6.73,-0.07
6.732,0.06
6.734,0.06
6.736,0.185
6.738,0.135
6.74,0.095
6.742,0.025
6.744,-0.025
6.746,-0.15
6.748,-0.105
6.75,-0.075
6.752,0.005
6.754,0.075
6.756,0.155
6.758,0.12
6.76,0.11
6.762,0.145
6.764,0.075
6.766,-0.14
6.768,-0.05
6.77,-0.11
6.772,0.005
6.774,0.06
6.776,0.165
6.778,0.2
6.78,0.135
6.782,-0.02
6.784,0.055
6.786,-0.14
6.788,-0.115
6.79,-0.015
6.792,0.03
6.794,0.125
6.796,0.15
6.798,0.14
6.8,0.11
6.802,0.06
6.804,0.025
6.806,-0.01
6.808,-0.09
6.81,-0.085
6.812,0.085
6.814,0.095
6.816,0.195
6.818,0.275
6.82,0.205
6.822,0.08
6.824,0.01
6.826,-0.105
6.828,-0.04
6.83,-0.01
6.832,0.02
6.834,0.085
6.836,0.205
6.838,0.235
6.84,0.17
6.842,0.11
6.844,-0.005
6.846,-0.07
6.848,-0.13
6.85,0.015
6.852,0.035
6.854,0.165
6.856,0.15
6.858,0.14
6.86,0.03
6.862,0.02
6.864,-0.065
6.866,-0.07
6.868,-0.08
6.87,0
6.872,0.09
6.874,0.055
6.876,0.105
6.878,0.075
6.88,0.145
6.882,0.005
6.884,-0.06
6.886,-0.185
6.888,-0.135
6.89,-0.03
6.892,0.12
6.894,0.255
6.896,0.325
6.898,0.52
6.9,0.535
6.902,0.67
6.904,0.675
6.906,0.585
6.908,0.57
6.91,0.63
6.912,0.645
6.914,0.745
6.916,0.825
6.918,0.84
6.92,0.63
6.922,0.455
6.924,0.3
6.926,-0.01
6.928,-0.1
6.93,-0.13
6.932,-0.06
6.934,0.095
6.936,0.125
6.938,0.1
6.94,0.075
6.942,0.07
6.944,-0.02
6.946,-0.14
6.948,-0.14
6.95,-0.01
6.952,-0.025
6.954,0.14
6.956,0.21
6.958,0.205
6.96,0.03
6.962,-0.04
6.964,-0.06
6.966,-0.12
6.968,-0.07
6.97,-0.055
6.972,-0.005
6.974,0.14
6.976,0.18
6.978,0.135
6.98,0.055
6.982,0.02
6.984,-0.055
6.986,-0.09
6.988,-0.035
6.99,0.035
6.992,0.085
6.994,0.21
6.996,0.14
6.998,0.06
7,0.05
7.002,0.05
7.004,-0.085
7.006,-0.12
7.008,-0.09
7.01,0.1
7.012,0.08
7.014,0.15
7.016,0.15
7.018,0.165
7.02,0.065
7.022,0.005
7.024,-0.12
7.026,-0.05
7.028,-0.03
7.03,0.07
7.032,0.09
7.034,0.24
7.036,0.21
7.038,0.14
7.04,0.17
7.042,0.06
7.044,-0.165
7.046,-0.02
7.048,0
7.05,0.035
7.052,0.09
7.054,0.155
7.056,0.15
7.058,0.195
7.06,0.1
7.062,0.085
7.064,-0.12
7.066,-0.015
7.068,0.01
7.07,0.05
7.072,0.155
7.074,0.145
7.076,0.245
7.078,0.22
7.08,0.15
7.082,0.105
7.084,0.06
7.086,0.03
7.088,0.17
7.09,0.15
7.092,0.245
7.094,0.325
7.096,0.255
7.098,0.225
7.1,0.19
7.102,0.225
7.104,0.02
7.106,0.06
7.108,0.185
7.11,0.28
7.112,0.3
7.114,0.335
7.116,0.38
7.118,0.39
7.12,0.26
7.122,0.265
7.124,0.19
7.126,0.075
7.128,0.195
7.13,0.24
7.132,0.29
7.134,0.44
7.136,0.395
7.138,0.35
7.14,0.255
7.142,0.225
7.144,0.125
7.146,0.085
7.148,0.14
7.15,0.26
7.152,0.33
7.154,0.325
7.156,0.39
7.158,0.255
7.16,0.21
7.162,0.2
7.164,0.06
7.166,0.02
7.168,0.065
7.17,0.18
7.172,0.16
7.174,0.205
7.176,0.195
7.178,0.205
7.18,0.07
7.182,0.115
7.184,-0.01
7.186,-0.025
7.188,-0.015
7.19,0.055
7.192,0.11
7.194,0.125
7.196,0.23
7.198,0.195
7.2,0.055
7.202,-0.085
7.204,-0.05
7.206,-0.04
7.208,0.01
7.21,0.045
7.212,0.12
7.214,0.24
7.216,0.125
7.218,0.105
7.22,0.06
7.222,-0.075
7.224,-0.075
7.226,-0.095
7.228,0.025
7.23,0.065
7.232,0.175
7.234,0.17
7.236,0.125
7.238,0.06
7.24,0.01
7.242,-0.04
7.244,-0.16
7.246,-0.14
7.248,-0.035
7.25,0.035
7.252,0.165
7.254,0.155
7.256,0.16
7.258,0.095
7.26,0.075
7.262,-0.06
7.264,-0.115
7.266,-0.105
7.268,-0.045
7.27,0.055
7.272,0.14
7.274,0.205
7.276,0.14
7.278,-0.045
7.28,0.02
7.282,-0.04
7.284,-0.115
7.286,-0.085
7.288,0.025
7.29,0.055
7.292,0.2
7.294,0.18
7.296,0.165
7.298,0.195
7.3,-0.015
7.302,-0.105
7.304,-0.09
7.306,-0.09
7.308,0.01
7.31,0.06
7.312,0.18
7.314,0.135
7.316,0.155
7.318,0.045
7.32,0
7.322,-0.12
7.324,-0.055
7.326,-0.07
7.328,0.01
7.33,0.055
7.332,0.165
7.334,0.155
7.336,0.16
7.338,0.12
7.34,0
7.342,-0.095
7.344,-0.03
7.346,-0.015
7.348,-0.01
7.35,0.05
7.352,0.195
7.354,0.18
7.356,0.115
7.358,-0.035
7.36,-0.03
7.362,-0.08
7.364,-0.115
7.366,-0.005
7.368,0.05
7.37,0.03
7.372,0.205
7.374,0.185
7.376,0.1
7.378,0.025
7.38,0.015
7.382,-0.095
7.384,-0.135
7.386,0.06
7.388,0.075
7.39,0.055
7.392,0.185
7.394,0.175
7.396,0.135
7.398,-0.005
7.4,0.01
7.402,-0.105
7.404,0.005
7.406,-0.005
7.408,-0.05
7.41,0.105
7.412,0.13
7.414,0.195
7.416,0.055
7.418,0
7.42,-0.02
7.422,-0.07
7.424,-0.125
7.426,-0.065
7.428,0.085
7.43,0.125
7.432,0.195
7.434,0.135
7.436,0.1
7.438,0.055
7.44,-0.03
7.442,-0.17
7.444,-0.1
7.446,0
7.448,0.085
7.45,0.03
7.452,0.165
7.454,0.145
7.456,0.1
7.458,0
7.46,-0.085
7.462,-0.1
7.464,-0.085
7.466,-0.06
7.468,0.07
7.47,0.035
7.472,0.2
7.474,0.21
7.476,0.155
7.478,0.015
7.48,-0.135
7.482,-0.15
7.484,-0.105
7.486,0
7.488,0
7.49,0.105
7.492,0.16
7.494,0.195
7.496,0.035
7.498,-0.015
7.5,-0.05
7.502,-0.07
7.504,-0.04
7.506,-0.03
7.508,0.015
7.51,0.08
7.512,0.145
7.514,0.155
7.516,0.185
7.518,0.025
7.52,-0.095
7.522,-0.13
7.524,-0.095
7.526,-0.025
7.528,0.165
7.53,0.13
7.532,0.145
7.534,0.175
7.536,0.12
7.538,0.015
7.54,-0.03
7.542,-0.145
7.544,-0.09
7.546,0.025
7.548,0.085
7.55,0.185
7.552,0.205
7.554,0.2
7.556,0.08
7.558,0.16
7.56,-0.005
7.562,-0.01
7.564,0.085
7.566,-0.005
7.568,0.055
7.57,0.145
7.572,0.185
7.574,0.19
7.576,0.03
7.578,0
7.58,-0.135
7.582,-0.17
7.584,-0.08
7.586,-0.015
7.588,0.065
7.59,0.13
7.592,0.15
7.594,0.13
7.596,0.04
7.598,-0.05
7.6,-0.185
7.602,-0.16
7.604,-0.085
7.606,0.015
7.608,0.07
7.61,0.12
7.612,0.155
7.614,0.055
7.616,0.03
7.618,-0.035
7.62,-0.175
7.622,-0.13
7.624,-0.14
7.626,0
7.628,0.005
7.63,0.27
7.632,0.335
7.634,0.415
7.636,0.4
7.638,0.56
7.64,0.525
7.642,0.505
7.644,0.645
7.646,0.685
7.648,0.625
7.65,0.72
7.652,0.85
7.654,0.73
7.656,0.565
7.658,0.49
7.66,0.17
7.662,0.015
7.664,-0.12
7.666,-0.13
7.668,-0.08
7.67,0.045
7.672,0.03
7.674,0.09
7.676,-0.01
7.678,-0.045
7.68,-0.085
7.682,-0.12
7.684,-0.105
7.686,0.04
7.688,0.055
7.69,0.185
7.692,0.25
7.694,0.095
7.696,-0.045
7.698,-0.025
7.7,-0.08
7.702,-0.12
7.704,-0.12
7.706,0.025
7.708,-0.025
7.71,0.035
7.712,0.095
7.714,0.11
7.716,0.085
7.718,0.05
7.72,-0.15
7.722,-0.11
7.724,-0.09
7.726,0.03
7.728,0.015
7.73,0.11
7.732,0.115
7.734,0.04
7.736,-0.07
7.738,-0.03
7.74,-0.035
7.742,-0.085
7.744,-0.055
7.746,0.07
7.748,0.055
7.75,0.155
7.752,0.185
7.754,0.07
7.756,0.025
7.758,-0.025
7.76,-0.11
7.762,-0.105
7.764,-0.045
7.766,0.06
7.768,0.055
7.77,0.18
7.772,0.18
7.774,0.11
7.776,0.065
7.778,-0.05
7.78,-0.14
7.782,-0.11
7.784,-0.015
7.786,0.075
7.788,0.135
7.79,0.215
7.792,0.21
7.794,0.125
7.796,0
7.798,-0.06
7.8,-0.05
7.802,-0.04
7.804,0.07
7.806,0.065
7.808,0.105
7.81,0.115
7.812,0.23
7.814,0.11
7.816,0.1
7.818,0.065
7.82,-0.045
7.822,-0.04
7.824,0.14
7.826,0.08
7.828,0.185
7.83,0.3
7.832,0.25
7.834,0.175
7.836,0.19
7.838,0.075
7.84,0.08
7.842,0.085
7.844,0.19
7.846,0.22
7.848,0.29
7.85,0.345
7.852,0.335
7.854,0.28
7.856,0.245
7.858,0.115
7.86,0.155
7.862,0.115
7.864,0.225
7.866,0.325
7.868,0.35
7.87,0.345
7.872,0.355
7.874,0.25
7.876,0.29
7.878,0.095
7.88,0.085
7.882,0.15
7.884,0.23
7.886,0.215
7.888,0.285
7.89,0.375
7.892,0.33
7.894,0.135
7.896,0.115
7.898,0.06
7.9,0.055
7.902,0.11
7.904,0.045
7.906,0.12
7.908,0.22
7.91,0.205
7.912,0.135
7.914,0.08
7.916,0.02
7.918,-0.055
7.92,-0.03
7.922,-0.065
7.924,-0.03
7.926,0.115
7.928,0.155
7.93,0.15
7.932,0.135
7.934,0.03
7.936,0.005
7.938,-0.11
7.94,-0.115
7.942,-0.06
7.944,0.055
7.946,-0.01
7.948,0.105
7.95,0.11
7.952,0.105
7.954,-0.045
7.956,-0.03
7.958,-0.105
7.96,-0.12
7.962,-0.125
7.964,-0.06
7.966,0.045
7.968,0.14
7.97,0.13
7.972,0.01
7.974,0.01
7.976,-0.055
7.978,-0.205
7.98,-0.16
7.982,-0.08
7.984,-0.03
7.986,-0.015
7.988,0.14
7.99,0.09
7.992,0.02
7.994,0.015
7.996,0.005
7.998,-0.155
8,-0.055
8.002,-0.055
8.004,-0.05
8.006,0.03
8.008,0.15
8.01,0.155
8.012,-0.015
8.014,-0.085
8.016,-0.045
8.018,-0.12
8.02,-0.15
8.022,-0.075
8.024,0
8.026,0.13
8.028,0.15
8.03,0.13
8.032,0.08
8.034,0.085
8.036,0.005
8.038,-0.17
8.04,-0.155
8.042,-0.08
8.044,-0.035
8.046,0.065
8.048,0.18
8.05,0.145
8.052,0
8.054,-0.01
8.056,-0.04
8.058,-0.13
8.06,-0.09
8.062,0.01
8.064,0.005
8.066,0.12
8.068,0.16
8.07,0.175
8.072,0.075
8.074,-0.02
8.076,0.02
8.078,-0.125
8.08,-0.115
8.082,0.035
8.084,0
8.086,0.12
8.088,0.135
8.09,0.13
8.092,0.08
8.094,0.07
8.096,-0.04
8.098,-0.115
8.1,-0.1
8.102,0
8.104,0.005
8.106,0.135
8.108,0.215
8.11,0.09
8.112,0.015
8.114,-0.055
8.116,-0.035
8.118,-0.095
8.12,-0.17
8.122,0
8.124,0.03
8.126,0.15
8.128,0.155
8.13,0.13
8.132,0.065
8.134,-0.015
8.136,-0.095
8.138,-0.07
8.14,-0.125
8.142,-0.06
8.144,0.055
8.146,0.175
8.148,0.15
8.15,0.085
8.152,0.075
8.154,-0.005
8.156,-0.19
8.158,-0.14
8.16,-0.03
8.162,0.055
8.164,0.015
8.166,0.125
8.168,0.145
8.17,0.135
8.172,0.12
8.174,0.09
8.176,-0.13
8.178,-0.11
8.18,-0.1
8.182,0.03
8.184,-0.035
8.186,0.135
8.188,0.15
8.19,0.12
8.192,0.07
8.194,-0.045
8.196,-0.105
8.198,-0.13
8.2,-0.085
8.202,0.01
8.204,0.025
8.206,0.155
8.208,0.21
8.21,0.1
8.212,-0.02
8.214,-0.035
8.216,-0.055
8.218,-0.08
8.22,-0.055
8.222,0.06
8.224,0.08
8.226,0.115
8.228,0.1
8.23,0.14
8.232,0.145
8.234,0.06
8.236,-0.08
8.238,0.01
8.24,0.005
8.242,0.135
8.244,0.07
8.246,0.09
8.248,0.13
8.25,0.16
8.252,0.07
8.254,0.01
8.256,-0.14
8.258,-0.2
8.26,-0.055
8.262,0.025
8.264,0.02
8.266,0.195
8.268,0.185
8.27,0.035
8.272,-0.05
8.274,-0.02
8.276,-0.09
8.278,-0.16
8.28,-0.045
8.282,-0.015
8.284,0.055
8.286,0.165
8.288,0.155
8.29,0.03
8.292,-0.03
8.294,-0.02
8.296,-0.185
8.298,-0.21
8.3,-0.13
8.302,-0.05
8.304,0.005
8.306,0.165
8.308,0.12
8.31,0.24
8.312,0.31
8.314,0.35
8.316,0.4
8.318,0.52
8.32,0.65
8.322,0.705
8.324,0.695
8.326,0.675
8.328,0.685
8.33,0.665
8.332,0.62
8.334,0.485
8.336,0.245
8.338,0.105
8.34,0.02
8.342,-0.07
8.344,-0.03
8.346,-0.045
8.348,0.04
8.35,-0.025
8.352,-0.035
8.354,-0.08
8.356,-0.125
8.358,-0.11
8.36,-0.06
8.362,0
8.364,0.075
8.366,0.12
8.368,0.025
8.37,0.035
8.372,-0.03
8.374,-0.09
8.376,-0.115
8.378,-0.115
8.38,-0.05
8.382,0.03
8.384,0.15
8.386,0.16
8.388,0.16
8.39,-0.035
8.392,-0.135
8.394,-0.1
8.396,-0.16
8.398,-0.125
8.4,-0.095
8.402,-0.045
8.404,0.105
8.406,0.17
8.408,0.14
8.41,0.025
8.412,-0.035
8.414,-0.08
8.416,-0.075
8.418,-0.145
8.42,0.105
8.422,0.04
8.424,0.185
8.426,0.065
8.428,0.07
8.43,0.055
8.432,-0.01
8.434,-0.12
8.436,-0.035
8.438,-0.06
8.44,-0.005
8.442,0.05
8.444,0.15
8.446,0.155
8.448,0.195
8.45,0.01
8.452,-0.03
8.454,-0.08
8.456,-0.145
8.458,-0.06
8.46,-0.015
8.462,0.055
8.464,0.175
8.466,0.15
8.468,0.155
8.47,0.015
8.472,0.015
8.474,-0.095
8.476,-0.09
8.478,0.01
8.48,0.075
8.482,0.12
8.484,0.165
8.486,0.175
8.488,0.26
8.49,0.095
8.492,0.04
8.494,-0.025
8.496,-0.01
8.498,-0.01
8.5,0.045
8.502,0.1
8.504,0.345
8.506,0.26
8.508,0.19
8.51,0.18
8.512,0.155
8.514,0.085
8.516,0.055
8.518,0.16
8.52,0.205
8.522,0.21
8.524,0.32
8.526,0.33
8.528,0.38
8.53,0.225
8.532,0.155
8.534,0.11
8.536,0.03
8.538,0.13
8.54,0.27
8.542,0.31
8.544,0.395
8.546,0.465
8.548,0.45
8.55,0.215
8.552,0.18
8.554,0.095
8.556,0.11
8.558,0.145
8.56,0.26
8.562,0.225
8.564,0.34
8.566,0.435
8.568,0.275
8.57,0.17
8.572,0.175
8.574,-0.025
8.576,0.005
8.578,0.045
8.58,0.16
8.582,0.225
8.584,0.23
8.586,0.235
8.588,0.195
8.59,0.08
8.592,-0.005
8.594,-0.065
8.596,-0.2
8.598,-0.13
8.6,0.12
8.602,0.06
8.604,0.12
8.606,0.11
8.608,0.065
8.61,0.005
8.612,-0.085
8.614,-0.105
8.616,-0.14
8.618,-0.045
8.62,0.055
8.622,0.095
8.624,0.12
8.626,0.135
8.628,0.09
8.63,-0.035
8.632,-0.15
8.634,-0.125
8.636,-0.095
8.638,-0.09
8.64,-0.025
8.642,0.07
8.644,0.07
8.646,0.07
8.648,0.075
8.65,0.015
8.652,-0.035
8.654,-0.195
8.656,-0.205
8.658,-0.075
8.66,0.035
8.662,0.04
8.664,0.145
8.666,0.03
8.668,-0.04
8.67,-0.08
8.672,-0.14
8.674,-0.125
8.676,-0.095
8.678,-0.025
8.68,-0.05
8.682,0.04
8.684,0.12
8.686,0.085
8.688,-0.01
8.69,-0.01
8.692,-0.13
8.694,-0.16
8.696,-0.065
8.698,-0.085
8.7,0.005
8.702,0.055
8.704,0.095
8.706,0.175
8.708,0.145
8.71,0
8.712,-0.075
8.714,-0.105
8.716,-0.12
8.718,-0.015
8.72,-0.01
8.722,0.08
8.724,0.15
8.726,0.13
8.728,-0.01
8.73,-0.065
8.732,-0.13
8.734,-0.12
8.736,-0.13
8.738,-0.05
8.74,0.03
8.742,0.12
8.744,0.115
8.746,0.045
8.748,-0.015
8.75,0.01
8.752,-0.125
8.754,-0.1
8.756,-0.015
8.758,-0.015
8.76,-0.055
8.762,0.115
8.764,0.1
8.766,0.095
8.768,0.035
8.77,-0.035
8.772,-0.18
8.774,-0.135
8.776,-0.07
8.778,-0.05
8.78,0.08
8.782,0.21
8.784,0.15
8.786,0.15
8.788,0.115
8.79,-0.06
8.792,-0.155
8.794,-0.065
8.796,-0.15
8.798,-0.09
8.8,-0.02
8.802,0.055
8.804,0.12
8.806,0.125
8.808,-0.01
8.81,-0.02
8.812,-0.175
8.814,-0.155
8.816,-0.09
8.818,-0.01
8.82,0.025
8.822,0.11
8.824,0.06
8.826,0.115
8.828,0
8.83,-0.09
8.832,-0.155
8.834,-0.17
8.836,-0.115
8.838,-0.005
8.84,0.075
8.842,0.07
8.844,0.165
8.846,0.095
8.848,-0.035
8.85,-0.05
8.852,-0.155
8.854,-0.125
8.856,-0.085
8.858,0.02
8.86,0.005
8.862,0.05
8.864,0.095
8.866,0.04
8.868,0
8.87,0.02
8.872,-0.155
8.874,-0.185
8.876,-0.135
8.878,0.04
8.88,0.045
8.882,0.13
8.884,0.115
8.886,0.005
8.888,-0.03
8.89,-0.025
8.892,-0.15
8.894,-0.2
8.896,-0.135
8.898,0.015
8.9,0.025
8.902,0.105
8.904,0.135
8.906,0.03
8.908,-0.01
8.91,-0.075
8.912,-0.14
8.914,-0.09
8.916,-0.09
8.918,-0.025
8.92,0.09
8.922,0.11
8.924,0.085
8.926,0.005
8.928,0.005
8.93,-0.085
8.932,-0.095
8.934,-0.135
8.936,-0.03
8.938,-0.05
8.94,0.085
8.942,0.18
8.944,0.12
8.946,0.095
8.948,0.02
8.95,-0.02
8.952,-0.135
8.954,-0.045
8.956,0
8.958,0.065
8.96,0.155
8.962,0.175
8.964,0.145
8.966,0.015
8.968,-0.015
8.97,-0.055
8.972,-0.145
8.974,-0.12
8.976,-0.045
8.978,0.04
8.98,0.13
8.982,0.145
8.984,0.05
8.986,-0.03
8.988,-0.035
8.99,-0.105
8.992,-0.13
8.994,-0.135
8.996,-0.105
8.998,0.01
9,0.09
9.002,0.115
9.004,0.08
9.006,0
9.008,-0.115
9.01,-0.06
9.012,-0.17
9.014,-0.23
9.016,0.045
9.018,-0.08
9.02,0.035
9.022,0.105
9.024,-0.01
9.026,0.07
9.028,0.11
9.03,0.095
9.032,0.155
9.034,0.41
9.036,0.655
9.038,0.725
9.04,0.825
9.042,0.745
9.044,0.74
9.046,0.62
9.048,0.65
9.05,0.5
9.052,0.5
9.054,0.455
9.056,0.465
9.058,0.34
9.06,0.19
9.062,0.055
9.064,0
9.066,-0.035
9.068,-0.09
9.07,-0.065
9.072,-0.125
9.074,-0.15
9.076,-0.05
9.078,0.015
9.08,0.065
9.082,0.125
9.084,0.08
9.086,-0.045
9.088,-0.065
9.09,-0.22
9.092,-0.12
9.094,-0.07
9.096,-0.03
9.098,-0.015
9.1,0.155
9.102,0.085
9.104,0.005
9.106,-0.035
9.108,0.02
9.11,-0.17
9.112,-0.125
9.114,-0.105
9.116,-0.03
9.118,0.04
9.12,0.1
9.122,0.125
9.124,0.14
9.126,-0.01
9.128,-0.045
9.13,-0.15
9.132,-0.055
9.134,-0.075
9.136,0.005
9.138,0.02
9.14,0.195
9.142,0.21
9.144,0.025
9.146,0.05
9.148,0.045
9.15,-0.19
9.152,-0.15
9.154,-0.075
9.156,0
9.158,0.065
9.16,0.08
9.162,0.11
9.164,0.12
9.166,0.1
9.168,-0.025
9.17,-0.125
9.172,-0.085
9.174,-0.035
9.176,-0.02
9.178,0.09
9.18,0.18
9.182,0.07
9.184,0.095
9.186,0.04
9.188,-0.05
9.19,-0.155
9.192,-0.055
9.194,-0.03
9.196,0.045
9.198,0.09
9.2,0.135
9.202,0.12
9.204,0.16
9.206,0.125
9.208,0.075
9.21,-0.015
9.212,-0.04
9.214,-0.035
9.216,0.055
9.218,0.17
9.22,0.215
9.222,0.19
9.224,0.15
9.226,0.125
9.228,0.035
9.23,0.08
9.232,0.06
9.234,0.06
9.236,0.13
9.238,0.245
9.24,0.305
9.242,0.25
9.244,0.23
9.246,0.235
9.248,0.075
9.25,0.005
9.252,0.08
9.254,0.12
9.256,0.23
9.258,0.355
9.26,0.345
9.262,0.36
9.264,0.355
9.266,0.145
9.268,0.14
9.27,0.13
9.272,0.125
9.274,0.215
9.276,0.32
9.278,0.275
9.28,0.31
9.282,0.325
9.284,0.225
9.286,0.145
9.288,0.175
9.29,0.085
9.292,0.04
9.294,0.125
9.296,0.14
9.298,0.24
9.3,0.285
9.302,0.2
9.304,0.1
9.306,0.01
9.308,-0.005
9.31,0.005
9.312,-0.035
9.314,-0.045
9.316,0.04
9.318,0.175
9.32,0.225
9.322,0.085
9.324,0.01
9.326,0.055
9.328,-0.12
9.33,-0.035
9.332,-0.095
9.334,-0.025
9.336,0.035
9.338,0.15
9.34,0.19
9.342,0.095
9.344,-0.03
9.346,0.015
9.348,-0.15
9.35,-0.075
9.352,-0.105
9.354,-0.005
9.356,-0.03
9.358,0.2
9.36,0.155
9.362,0.05
9.364,0.025
9.366,-0.03
9.368,-0.08
9.37,-0.125
9.372,-0.205
9.374,0.005
9.376,-0.03
9.378,0.125
9.38,0.125
9.382,0.06
9.384,0.03
9.386,-0.04
9.388,-0.15
9.39,-0.1
9.392,-0.08
9.394,-0.015
9.396,0.03
9.398,0.085
9.4,0.11
9.402,0
9.404,-0.05
9.406,-0.05
9.408,-0.125
9.41,-0.025
9.412,-0.055
9.414,-0.015
9.416,0.065
9.418,0.185
9.42,0.18
9.422,0.06
9.424,-0.025
9.426,-0.035
9.428,-0.095
9.43,-0.125
9.432,-0.035
9.434,0.045
9.436,0.085
9.438,0.08
9.44,0.125
9.442,0.09
9.444,-0.005
9.446,0.1
9.448,-0.07
9.45,-0.135
9.452,-0.13
9.454,-0.075
9.456,0.03
9.458,0.11
9.46,0.14
9.462,0.045
9.464,0.03
9.466,-0.125
9.468,-0.11
9.47,-0.1
9.472,0.005
9.474,0.01
9.476,0.045
9.478,0.12
9.48,0.155
9.482,0.15
9.484,0.03
9.486,-0.01
9.488,-0.115
9.49,-0.145
9.492,-0.01
9.494,0.05
9.496,0.105
9.498,0.11
9.5,0.105
9.502,0.085
9.504,-0.025
9.506,-0.015
9.508,-0.075
9.51,-0.065
9.512,0.03
9.514,-0.02
9.516,0.025
9.518,0.12
9.52,0.115
9.522,0.115
9.524,-0.03
9.526,-0.04
9.528,-0.12
9.53,-0.1
9.532,-0.06
9.534,-0.01
9.536,0.135
9.538,0.175
9.54,0.09
9.542,0.11
9.544,-0.005
9.546,-0.085
9.548,-0.1
9.55,-0.125
9.552,-0.05
9.554,-0.015
9.556,0.075
9.558,0.11
9.56,0.19
9.562,0.07
9.564,-0.05
9.566,-0.055
9.568,-0.07
9.57,-0.115
9.572,-0.025
9.574,0.035
9.576,0.09
9.578,0.11
9.58,0.215
9.582,0.1
9.584,-0.04
9.586,-0.095
9.588,-0.11
9.59,-0.065
9.592,0.045
9.594,-0.015
9.596,0.11
9.598,0.165
9.6,0.125
9.602,0.075
9.604,0.025
9.606,-0.085
9.608,-0.135
9.61,-0.055
9.612,0.06
9.614,0.135
9.616,0.1
9.618,0.075
9.62,0.045
9.622,0.065
9.624,-0.005
9.626,-0.145
9.628,-0.095
9.63,-0.11
9.632,0.075
9.634,0.025
9.636,0.16
9.638,0.1
9.64,0.04
9.642,0.04
9.644,0.045
9.646,-0.11
9.648,-0.135
9.65,-0.04
9.652,0.035
9.654,0.015
9.656,0.135
9.658,0.15
9.66,0.13
9.662,0.06
9.664,0
9.666,-0.145
9.668,-0.07
9.67,-0.065
9.672,0.025
9.674,0.03
9.676,0.185
9.678,0.2
9.68,0.24
9.682,0.04
9.684,-0.005
9.686,-0.14
9.688,-0.09
9.69,0.015
9.692,0.035
9.694,0.11
9.696,0.235
9.698,0.205
9.7,0.175
9.702,0.17
9.704,0.14
9.706,-0.035
9.708,-0.03
9.71,0.055
9.712,-0.015
9.714,-0.05
9.716,0.15
9.718,0.24
9.72,0.095
9.722,0.005
9.724,-0.055
9.726,-0.12
9.728,-0.075
9.73,0
9.732,0.075
9.734,0.05
9.736,0.165
9.738,0.14
9.74,0.09
9.742,0.01
9.744,0.015
9.746,-0.13
9.748,-0.075
9.75,0.015
9.752,0.01
9.754,0.06
9.756,0.21
9.758,0.115
9.76,-0.015
9.762,-0.06
9.764,-0.07
9.766,-0.125
9.768,-0.015
9.77,0.17
9.772,0.425
9.774,0.54
9.776,0.84
9.778,0.815
9.78,0.82
9.782,0.66
9.784,0.64
9.786,0.585
9.788,0.57
9.79,0.625
9.792,0.68
9.794,0.71
9.796,0.635
9.798,0.515
9.8,0.205
9.802,0.07
9.804,-0.15
9.806,-0.195
9.808,-0.14
9.81,-0.085
9.812,0.06
9.814,0.17
9.816,0.15
9.818,0.09
9.82,0.1
9.822,0.075
9.824,-0.035
9.826,-0.105
9.828,-0.065
9.83,-0.05
9.832,0.045
9.834,0.105
9.836,0.175
9.838,0.105
9.84,0.07
9.842,0.025
9.844,-0.11
9.846,-0.125
9.848,-0.07
9.85,0.005
9.852,0.06
9.854,0.21
9.856,0.17
9.858,0.125
9.86,0.07
9.862,0.075
9.864,-0.095
9.866,-0.065
9.868,-0.035
9.87,0.015
9.872,0.1
9.874,0.15
9.876,0.175
9.878,0.135
9.88,0.055
9.882,0.055
9.884,-0.05
9.886,-0.13
9.888,-0.065
9.89,0.09
9.892,0.12
9.894,0.25
9.896,0.16
9.898,0.105
9.9,0.03
9.902,-0.005
9.904,-0.04
9.906,-0.08
9.908,0.04
9.91,0.005
9.912,0.07
9.914,0.22
9.916,0.235
9.918,0.085
9.92,0.095
9.922,0.06
9.924,-0.115
9.926,-0.075
9.928,-0.005
9.93,0.12
9.932,0.14
9.934,0.24
9.936,0.23
9.938,0.22
9.94,0.105
9.942,0.04
9.944,0.05
9.946,-0.045
9.948,-0.005
9.95,0.085
9.952,0.175
9.954,0.29
9.956,0.265
9.958,0.22
9.96,0.215
9.962,0.17
9.964,0.005
9.966,0.04
9.968,0.07
9.97,0.105
9.972,0.26
9.974,0.24
9.976,0.31
9.978,0.325
9.98,0.205
9.982,0.2
9.984,0.2
9.986,0.13
9.988,0.15
9.99,0.345
9.992,0.3
9.994,0.375
9.996,0.43
9.998,0.32
