0,-0.435
0.002,-0.335
0.004,-0.34
0.006,-0.395
0.008,-0.54
0.01,-0.495
0.012,-0.575
0.014,-0.45
0.016,-0.49
0.018,-0.47
0.02,-0.385
0.022,-0.265
0.024,-0.33
0.026,-0.335
0.028,-0.34
0.03,-0.44
0.032,-0.44
0.034,-0.42
0.036,-0.465
0.038,-0.43
0.04,-0.35
0.042,-0.335
0.044,-0.415
0.046,-0.435
0.048,-0.44
0.05,-0.53
0.052,-0.625
0.054,-0.445
0.056,-0.45
0.058,-0.355
0.06,-0.36
0.062,-0.305
0.064,-0.385
0.066,-0.455
0.068,-0.39
0.07,-0.425
0.072,-0.555
0.074,-0.58
0.076,-0.53
0.078,-0.405
0.08,-0.39
0.082,-0.335
0.084,-0.325
0.086,-0.45
0.088,-0.48
0.09,-0.48
0.092,-0.62
0.094,-0.57
0.096,-0.395
0.098,-0.37
0.1,-0.395
0.102,-0.37
0.104,-0.355
0.106,-0.41
0.108,-0.465
0.11,-0.505
0.112,-0.56
0.114,-0.55
0.116,-0.375
0.118,-0.41
0.12,-0.385
0.122,-0.28
0.124,-0.33
0.126,-0.44
0.128,-0.55
0.13,-0.595
0.132,-0.715
0.134,-0.67
0.136,-0.61
0.138,-0.495
0.14,-0.39
0.142,-0.36
0.144,-0.3
0.146,-0.255
0.148,-0.33
0.15,-0.475
0.152,-0.605
0.154,-0.57
0.156,-0.55
0.158,-0.455
0.16,-0.425
0.162,-0.37
0.164,-0.355
0.166,-0.415
0.168,-0.385
0.17,-0.445
0.172,-0.6
0.174,-0.59
0.176,-0.505
0.178,-0.41
0.18,-0.3
0.182,-0.315
0.184,-0.31
0.186,-0.325
0.188,-0.445
0.19,-0.58
0.192,-0.62
0.194,-0.56
0.196,-0.485
0.198,-0.4
0.2,-0.385
0.202,-0.33
0.204,-0.435
0.206,-0.57
0.208,-0.505
0.21,-0.535
0.212,-0.585
0.214,-0.62
0.216,-0.605
0.218,-0.51
0.22,-0.405
0.222,-0.48
0.224,-0.385
0.226,-0.45
0.228,-0.43
0.23,-0.505
0.232,-0.6
0.234,-0.545
0.236,-0.49
0.238,-0.47
0.24,-0.425
0.242,-0.35
0.244,-0.375
0.246,-0.47
0.248,-0.525
0.25,-0.59
0.252,-0.665
0.254,-0.635
0.256,-0.56
0.258,-0.585
0.26,-0.38
0.262,-0.365
0.264,-0.36
0.266,-0.47
0.268,-0.485
0.27,-0.635
0.272,-0.655
0.274,-0.595
0.276,-0.56
0.278,-0.51
0.28,-0.31
0.282,-0.36
0.284,-0.435
0.286,-0.5
0.288,-0.515
0.29,-0.505
0.292,-0.625
0.294,-0.665
0.296,-0.665
0.298,-0.64
0.3,-0.365
0.302,-0.43
0.304,-0.47
0.306,-0.475
0.308,-0.52
0.31,-0.63
0.312,-0.61
0.314,-0.73
0.316,-0.59
0.318,-0.51
0.32,-0.41
0.322,-0.355
0.324,-0.43
0.326,-0.47
0.328,-0.59
0.33,-0.665
0.332,-0.62
0.334,-0.575
0.336,-0.62
0.338,-0.625
0.34,-0.385
0.342,-0.305
0.344,-0.36
0.346,-0.435
0.348,-0.505
0.35,-0.655
0.352,-0.635
0.354,-0.565
0.356,-0.53
0.358,-0.48
0.36,-0.42
0.362,-0.28
0.364,-0.345
0.366,-0.375
0.368,-0.44
0.37,-0.555
0.372,-0.585
0.374,-0.58
0.376,-0.56
0.378,-0.44
0.38,-0.38
0.382,-0.445
0.384,-0.47
0.386,-0.51
0.388,-0.49
0.39,-0.53
0.392,-0.62
0.394,-0.625
0.396,-0.495
0.398,-0.47
0.4,-0.4
0.402,-0.33
0.404,-0.345
0.406,-0.44
0.408,-0.63
0.41,-0.64
0.412,-0.625
0.414,-0.57
0.416,-0.5
0.418,-0.545
0.42,-0.405
0.422,-0.4
0.424,-0.515
0.426,-0.585
0.428,-0.59
0.43,-0.68
0.432,-0.67
0.434,-0.635
0.436,-0.585
0.438,-0.54
0.44,-0.445
0.442,-0.47
0.444,-0.395
0.446,-0.54
0.448,-0.495
0.45,-0.575
0.452,-0.62
0.454,-0.57
0.456,-0.52
0.458,-0.49
0.46,-0.415
0.462,-0.46
0.464,-0.495
0.466,-0.595
0.468,-0.69
0.47,-0.765
0.472,-0.69
0.474,-0.655
0.476,-0.64
0.478,-0.405
0.48,-0.345
0.482,-0.485
0.484,-0.505
0.486,-0.54
0.488,-0.64
0.49,-0.545
0.492,-0.655
0.494,-0.655
0.496,-0.57
0.498,-0.495
0.5,-0.37
0.502,-0.35
0.504,-0.405
0.506,-0.475
0.508,-0.565
0.51,-0.625
0.512,-0.585
0.514,-0.46
0.516,-0.4
0.518,-0.315
0.52,-0.18
0.522,-0.14
0.524,-0.2
0.526,-0.195
0.528,-0.26
0.53,-0.17
0.532,-0.08
0.534,-0.045
0.536,0.02
0.538,-0.03
0.54,0
0.542,-0.08
0.544,-0.14
0.546,-0.305
0.548,-0.39
0.55,-0.32
0.552,-0.34
0.554,-0.265
0.556,-0.3
0.558,-0.32
0.56,-0.375
0.562,-0.44
0.564,-0.52
0.566,-0.505
0.568,-0.565
0.57,-0.57
0.572,-0.53
0.574,-0.455
0.576,-0.395
0.578,-0.23
0.58,-0.28
0.582,-0.355
0.584,-0.47
0.586,-0.54
0.588,-0.685
0.59,-0.655
0.592,-0.585
0.594,-0.585
0.596,-0.52
0.598,-0.335
0.6,-0.38
0.602,-0.435
0.604,-0.435
0.606,-0.505
0.608,-0.57
0.61,-0.595
0.612,-0.635
0.614,-0.58
0.616,-0.53
0.618,-0.415
0.62,-0.285
0.622,-0.27
0.624,-0.345
0.626,-0.47
0.628,-0.585
0.63,-0.54
0.632,-0.51
0.634,-0.45
0.636,-0.4
0.638,-0.305
0.64,-0.255
0.642,-0.335
0.644,-0.425
0.646,-0.52
0.648,-0.57
0.65,-0.585
0.652,-0.41
0.654,-0.34
0.656,-0.385
0.658,-0.23
0.66,-0.25
0.662,-0.29
0.664,-0.375
0.666,-0.385
0.668,-0.53
0.67,-0.48
0.672,-0.48
0.674,-0.365
0.676,-0.33
0.678,-0.285
0.68,-0.185
0.682,-0.31
0.684,-0.335
0.686,-0.395
0.688,-0.47
0.69,-0.53
0.692,-0.525
0.694,-0.295
0.696,-0.23
0.698,-0.16
0.7,-0.12
0.702,-0.19
0.704,-0.34
0.706,-0.325
0.708,-0.505
0.71,-0.59
0.712,-0.465
0.714,-0.315
0.716,-0.265
0.718,-0.19
0.72,-0.295
0.722,-0.335
0.724,-0.32
0.726,-0.33
0.728,-0.415
0.73,-0.415
0.732,-0.43
0.734,-0.345
0.736,-0.115
0.738,-0.105
0.74,-0.09
0.742,-0.19
0.744,-0.21
0.746,-0.275
0.748,-0.305
0.75,-0.285
0.752,-0.2
0.754,-0.25
0.756,-0.17
0.758,-0.09
0.76,-0.065
0.762,-0.17
0.764,-0.24
0.766,-0.28
0.768,-0.305
0.77,-0.24
0.772,-0.145
0.774,-0.125
0.776,-0.13
0.778,-0.105
0.78,-0.11
0.782,-0.12
0.784,-0.165
0.786,-0.26
0.788,-0.415
0.79,-0.365
0.792,-0.175
0.794,-0.03
0.796,0
0.798,-0.04
0.8,-0.01
0.802,-0.055
0.804,-0.135
0.806,-0.18
0.808,-0.155
0.81,-0.13
0.812,-0.1
0.814,-0.12
0.816,0.01
0.818,0.115
0.82,-0.01
0.822,-0.02
0.824,-0.105
0.826,-0.185
0.828,-0.215
0.83,-0.205
0.832,-0.145
0.834,-0.095
0.836,-0.05
0.838,-0.055
0.84,-0.08
0.842,-0.185
0.844,-0.205
0.846,-0.33
0.848,-0.3
0.85,-0.3
0.852,-0.235
0.854,-0.13
0.856,-0.035
0.858,-0.125
0.86,-0.145
0.862,-0.22
0.864,-0.32
0.866,-0.37
0.868,-0.5
0.87,-0.6
0.872,-0.37
0.874,-0.215
0.876,-0.15
0.878,-0.175
0.88,-0.265
0.882,-0.265
0.884,-0.315
0.886,-0.475
0.888,-0.41
0.89,-0.48
0.892,-0.4
0.894,-0.345
0.896,-0.18
0.898,-0.195
0.9,-0.27
0.902,-0.385
0.904,-0.32
0.906,-0.385
0.908,-0.43
0.91,-0.43
0.912,-0.325
0.914,-0.395
0.916,-0.29
0.918,-0.14
0.92,-0.2
0.922,-0.355
0.924,-0.45
0.926,-0.455
0.928,-0.39
0.93,-0.33
0.932,-0.38
0.934,-0.385
0.936,-0.215
0.938,-0.325
0.94,-0.315
0.942,-0.285
0.944,-0.315
0.946,-0.445
0.948,-0.34
0.95,-0.325
0.952,-0.28
0.954,-0.3
0.956,-0.18
0.958,-0.15
0.96,-0.285
0.962,-0.37
0.964,-0.52
0.966,-0.455
0.968,-0.505
0.97,-0.51
0.972,-0.435
0.974,-0.275
0.976,-0.2
0.978,-0.35
0.98,-0.37
0.982,-0.34
0.984,-0.385
0.986,-0.455
0.988,-0.535
0.99,-0.475
0.992,-0.405
0.994,-0.275
0.996,-0.25
0.998,-0.245
1,-0.27
1.002,-0.405
1.004,-0.475
1.006,-0.43
1.008,-0.41
1.01,-0.415
1.012,-0.36
1.014,-0.24
1.016,-0.185
1.018,-0.165
1.02,-0.23
1.022,-0.34
1.024,-0.355
1.026,-0.48
1.028,-0.5
1.03,-0.47
1.032,-0.42
1.034,-0.31
1.036,-0.31
1.038,-0.25
1.04,-0.225
1.042,-0.275
1.044,-0.365
1.046,-0.295
1.048,-0.26
1.05,-0.39
1.052,-0.35
1.054,-0.28
1.056,-0.255
1.058,-0.145
1.06,-0.34
1.062,-0.465
1.064,-0.525
1.066,-0.535
1.068,-0.47
1.07,-0.36
1.072,-0.3
1.074,-0.25
1.076,-0.175
1.078,-0.215
1.08,-0.32
1.082,-0.375
1.084,-0.44
1.086,-0.425
1.088,-0.375
1.09,-0.34
1.092,-0.31
1.094,-0.28
1.096,-0.17
1.098,-0.135
1.1,-0.225
1.102,-0.375
1.104,-0.435
1.106,-0.42
1.108,-0.45
1.11,-0.32
1.112,-0.25
1.114,-0.105
1.116,-0.155
1.118,-0.215
1.12,-0.285
1.122,-0.275
1.124,-0.505
1.126,-0.575
1.128,-0.335
1.13,-0.34
1.132,-0.31
1.134,-0.31
1.136,-0.41
1.138,-0.415
1.14,-0.395
1.142,-0.355
1.144,-0.43
1.146,-0.43
1.148,-0.455
1.15,-0.325
1.152,-0.27
1.154,-0.245
1.156,-0.35
1.158,-0.375
1.16,-0.4
1.162,-0.34
1.164,-0.435
1.166,-0.47
1.168,-0.47
1.17,-0.37
1.172,-0.35
1.174,-0.15
1.176,-0.235
1.178,-0.36
1.18,-0.265
1.182,-0.215
1.184,-0.38
1.186,-0.44
1.188,-0.415
1.19,-0.355
1.192,-0.355
1.194,-0.215
1.196,-0.16
1.198,-0.23
1.2,-0.265
1.202,-0.405
1.204,-0.57
1.206,-0.57
1.208,-0.51
1.21,-0.41
1.212,-0.35
1.214,-0.21
1.216,-0.28
1.218,-0.355
1.22,-0.48
1.222,-0.39
1.224,-0.575
1.226,-0.565
1.228,-0.55
1.23,-0.415
1.232,-0.445
1.234,-0.24
1.236,-0.285
1.238,-0.33
1.24,-0.31
1.242,-0.36
1.244,-0.435
1.246,-0.51
1.248,-0.465
1.25,-0.36
1.252,-0.305
1.254,-0.23
1.256,-0.28
1.258,-0.3
1.26,-0.45
1.262,-0.445
1.264,-0.565
1.266,-0.585
1.268,-0.525
1.27,-0.525
1.272,-0.27
1.274,-0.255
1.276,-0.195
1.278,-0.285
1.28,-0.405
1.282,-0.46
1.284,-0.595
1.286,-0.585
1.288,-0.6
1.29,-0.455
1.292,-0.465
1.294,-0.315
1.296,-0.31
1.298,-0.335
1.3,-0.35
1.302,-0.55
1.304,-0.515
1.306,-0.435
1.308,-0.465
1.31,-0.38
1.312,-0.335
1.314,-0.205
1.316,-0.315
1.318,-0.41
1.32,-0.49
1.322,-0.525
1.324,-0.585
1.326,-0.485
1.328,-0.39
1.33,-0.305
1.332,-0.215
1.334,-0.275
1.336,-0.26
1.338,-0.345
1.34,-0.455
1.342,-0.515
1.344,-0.56
1.346,-0.6
1.348,-0.585
1.35,-0.43
1.352,-0.245
1.354,-0.295
1.356,-0.305
1.358,-0.3
1.36,-0.37
1.362,-0.45
1.364,-0.44
1.366,-0.48
1.368,-0.475
1.37,-0.415
1.372,-0.3
1.374,-0.27
1.376,-0.33
1.378,-0.4
1.38,-0.465
1.382,-0.515
1.384,-0.49
1.386,-0.48
1.388,-0.445
1.39,-0.385
1.392,-0.335
1.394,-0.39
1.396,-0.355
1.398,-0.305
1.4,-0.45
1.402,-0.545
1.404,-0.55
1.406,-0.52
1.408,-0.52
1.41,-0.43
1.412,-0.265
1.414,-0.285
1.416,-0.325
1.418,-0.32
1.42,-0.44
1.422,-0.515
1.424,-0.645
1.426,-0.55
1.428,-0.47
1.43,-0.395
1.432,-0.24
1.434,-0.275
1.436,-0.32
1.438,-0.44
1.44,-0.425
1.442,-0.485
1.444,-0.55
1.446,-0.555
1.448,-0.5
1.45,-0.34
1.452,-0.21
1.454,-0.26
1.456,-0.4
1.458,-0.465
1.46,-0.44
1.462,-0.58
1.464,-0.57
1.466,-0.585
1.468,-0.505
1.47,-0.405
1.472,-0.29
1.474,-0.245
1.476,-0.295
1.478,-0.4
1.48,-0.41
1.482,-0.56
1.484,-0.475
1.486,-0.42
1.488,-0.36
1.49,-0.27
1.492,-0.205
1.494,-0.31
1.496,-0.395
1.498,-0.36
1.5,-0.345
1.502,-0.47
1.504,-0.495
1.506,-0.48
1.508,-0.425
1.51,-0.395
1.512,-0.245
1.514,-0.165
1.516,-0.255
1.518,-0.415
1.52,-0.365
1.522,-0.48
1.524,-0.435
1.526,-0.37
1.528,-0.315
1.53,-0.285
1.532,-0.17
1.534,-0.25
1.536,-0.375
1.538,-0.46
1.54,-0.48
1.542,-0.395
1.544,-0.37
1.546,-0.29
1.548,-0.295
1.55,-0.31
1.552,-0.225
1.554,-0.26
1.556,-0.355
1.558,-0.34
1.56,-0.465
1.562,-0.46
1.564,-0.49
1.566,-0.435
1.568,-0.38
1.57,-0.325
1.572,-0.18
1.574,-0.265
1.576,-0.42
1.578,-0.505
1.58,-0.55
1.582,-0.505
1.584,-0.515
1.586,-0.475
1.588,-0.385
1.59,-0.37
1.592,-0.27
1.594,-0.295
1.596,-0.365
1.598,-0.46
1.6,-0.465
1.602,-0.57
1.604,-0.545
1.606,-0.435
1.608,-0.41
1.61,-0.44
1.612,-0.265
1.614,-0.275
1.616,-0.35
1.618,-0.385
1.62,-0.445
1.622,-0.465
1.624,-0.495
1.626,-0.415
1.628,-0.315
1.63,-0.28
1.632,-0.28
1.634,-0.3
1.636,-0.31
1.638,-0.39
1.64,-0.57
1.642,-0.53
1.644,-0.395
1.646,-0.32
1.648,-0.29
1.65,-0.145
1.652,-0.01
1.654,0.045
1.656,0.055
1.658,0.15
1.66,-0.025
1.662,-0.015
1.664,0.12
1.666,0.135
1.668,-0.03
1.67,0.085
1.672,0.12
1.674,-0.02
1.676,-0.13
1.678,-0.21
1.68,-0.26
1.682,-0.24
1.684,-0.21
1.686,-0.265
1.688,-0.205
1.69,-0.175
1.692,-0.23
1.694,-0.355
1.696,-0.39
1.698,-0.405
1.7,-0.505
1.702,-0.49
1.704,-0.52
1.706,-0.26
1.708,-0.26
1.71,-0.13
1.712,-0.105
1.714,-0.255
1.716,-0.295
1.718,-0.35
1.72,-0.45
1.722,-0.485
1.724,-0.455
1.726,-0.405
1.728,-0.465
1.73,-0.225
1.732,-0.225
1.734,-0.335
1.736,-0.45
1.738,-0.475
1.74,-0.37
1.742,-0.345
1.744,-0.435
1.746,-0.35
1.748,-0.375
1.75,-0.325
1.752,-0.405
1.754,-0.45
1.756,-0.565
1.758,-0.485
1.76,-0.425
1.762,-0.44
1.764,-0.34
1.766,-0.285
1.768,-0.28
1.77,-0.275
1.772,-0.25
1.774,-0.3
1.776,-0.27
1.778,-0.33
1.78,-0.48
1.782,-0.48
1.784,-0.45
1.786,-0.395
1.788,-0.4
1.79,-0.27
1.792,-0.15
1.794,-0.2
1.796,-0.25
1.798,-0.355
1.8,-0.525
1.802,-0.46
1.804,-0.385
1.806,-0.295
1.808,-0.25
1.81,-0.225
1.812,-0.21
1.814,-0.195
1.816,-0.375
1.818,-0.45
1.82,-0.515
1.822,-0.47
1.824,-0.28
1.826,-0.275
1.828,-0.175
1.83,-0.145
1.832,-0.2
1.834,-0.235
1.836,-0.325
1.838,-0.405
1.84,-0.465
1.842,-0.355
1.844,-0.365
1.846,-0.345
1.848,-0.335
1.85,-0.24
1.852,-0.165
1.854,-0.215
1.856,-0.33
1.858,-0.385
1.86,-0.425
1.862,-0.445
1.864,-0.295
1.866,-0.305
1.868,-0.24
1.87,-0.175
1.872,-0.095
1.874,-0.185
1.876,-0.2
1.878,-0.27
1.88,-0.44
1.882,-0.57
1.884,-0.16
1.886,-0.105
1.888,-0.065
1.89,-0.1
1.892,-0.09
1.894,-0.2
1.896,-0.215
1.898,-0.24
1.9,-0.31
1.902,-0.29
1.904,-0.24
1.906,-0.175
1.908,-0.065
1.91,0.055
1.912,-0.045
1.914,-0.075
1.916,-0.12
1.918,-0.115
1.92,-0.135
1.922,-0.175
1.924,-0.11
1.926,-0.09
1.928,-0.065
1.93,-0.02
1.932,-0.04
1.934,0.055
1.936,-0.03
1.938,-0.155
1.94,-0.26
1.942,-0.2
1.944,-0.35
1.946,-0.245
1.948,-0.24
1.95,-0.33
1.952,-0.195
1.954,-0.26
1.956,-0.335
1.958,-0.45
1.96,-0.505
1.962,-0.495
1.964,-0.375
1.966,-0.3
1.968,-0.26
1.97,-0.365
1.972,-0.51
1.974,-0.4
1.976,-0.495
1.978,-0.545
1.98,-0.565
1.982,-0.585
1.984,-0.625
1.986,-0.605
1.988,-0.6
1.99,-0.41
1.992,-0.505
1.994,-0.395
1.996,-0.56
1.998,-0.7
2,-0.705
2.002,-0.675
2.004,-0.615
2.006,-0.645
2.008,-0.585
2.01,-0.615
2.012,-0.64
2.014,-0.73
2.016,-0.765
2.018,-0.88
2.02,-0.675
2.022,-0.66
2.024,-0.73
2.026,-0.68
2.028,-0.605
2.03,-0.67
2.032,-0.71
2.034,-0.795
2.036,-0.77
2.038,-0.79
2.04,-0.8
2.042,-0.725
2.044,-0.69
2.046,-0.595
2.048,-0.58
2.05,-0.615
2.052,-0.685
2.054,-0.73
2.056,-0.78
2.058,-0.865
2.06,-0.76
2.062,-0.7
2.064,-0.655
2.066,-0.625
2.068,-0.57
2.07,-0.62
2.072,-0.685
2.074,-0.765
2.076,-0.885
2.078,-1.09
2.08,-1.105
2.082,-0.87
2.084,-0.78
2.086,-0.685
2.088,-0.615
2.09,-0.6
2.092,-0.66
2.094,-0.765
2.096,-0.89
2.098,-0.93
2.1,-0.87
2.102,-0.8
2.104,-0.775
2.106,-0.765
2.108,-0.635
2.11,-0.645
2.112,-0.71
2.114,-0.82
2.116,-0.77
2.118,-0.815
2.12,-0.885
2.122,-0.835
2.124,-0.785
2.126,-0.67
2.128,-0.63
2.13,-0.65
2.132,-0.715
2.134,-0.85
2.136,-0.995
2.138,-0.89
2.14,-0.94
2.142,-0.82
2.144,-0.63
2.146,-0.65
2.148,-0.63
2.15,-0.605
2.152,-0.635
2.154,-0.77
2.156,-0.86
2.158,-0.875
2.16,-0.87
2.162,-0.865
2.164,-0.775
2.166,-0.695
2.168,-0.675
2.17,-0.685
2.172,-0.675
2.174,-0.775
2.176,-0.93
2.178,-0.89
2.18,-0.805
2.182,-0.735
2.184,-0.7
2.186,-0.695
2.188,-0.65
2.19,-0.7
2.192,-0.715
2.194,-0.81
2.196,-0.965
2.198,-1.045
2.2,-1.01
2.202,-0.86
2.204,-0.77
2.206,-0.745
2.208,-0.745
2.21,-0.81
2.212,-0.75
2.214,-0.91
2.216,-0.87
2.218,-0.885
2.22,-0.83
2.222,-0.795
2.224,-0.73
2.226,-0.685
2.228,-0.675
2.23,-0.665
2.232,-0.655
2.234,-0.765
2.236,-0.86
2.238,-0.82
2.24,-0.845
2.242,-0.76
2.244,-0.735
2.246,-0.675
2.248,-0.63
2.25,-0.695
2.252,-0.75
2.254,-0.835
2.256,-0.87
2.258,-0.945
2.26,-0.735
2.262,-0.73
2.264,-0.83
2.266,-0.63
2.268,-0.64
2.27,-0.665
2.272,-0.72
2.274,-0.795
2.276,-0.89
2.278,-0.93
2.28,-0.965
2.282,-0.87
2.284,-0.845
2.286,-0.725
2.288,-0.635
2.29,-0.71
2.292,-0.68
2.294,-0.67
2.296,-0.935
2.298,-0.985
2.3,-0.985
2.302,-0.89
2.304,-0.81
2.306,-0.64
2.308,-0.605
2.31,-0.675
2.312,-0.765
2.314,-0.84
2.316,-0.95
2.318,-0.975
2.32,-1
2.322,-0.75
2.324,-0.695
2.326,-0.625
2.328,-0.705
2.33,-0.745
2.332,-0.755
2.334,-0.78
2.336,-0.915
2.338,-0.94
2.34,-0.88
2.342,-0.78
2.344,-0.71
2.346,-0.68
2.348,-0.705
2.35,-0.715
2.352,-0.76
2.354,-0.845
2.356,-0.945
2.358,-0.925
2.36,-0.85
2.362,-0.88
2.364,-0.77
2.366,-0.675
2.368,-0.595
2.37,-0.69
2.372,-0.785
2.374,-0.825
2.376,-0.865
2.378,-0.93
2.38,-0.935
2.382,-0.765
2.384,-0.84
2.386,-0.74
2.388,-0.59
2.39,-0.615
2.392,-0.72
2.394,-0.765
2.396,-0.855
2.398,-0.835
2.4,-0.845
2.402,-0.765
2.404,-0.69
2.406,-0.66
2.408,-0.685
2.41,-0.625
2.412,-0.755
2.414,-0.795
2.416,-0.865
2.418,-0.865
2.42,-0.86
2.422,-0.805
2.424,-0.765
2.426,-0.635
2.428,-0.62
2.43,-0.645
2.432,-0.695
2.434,-0.795
2.436,-0.925
2.438,-0.9
2.44,-0.76
2.442,-0.66
2.444,-0.595
2.446,-0.63
2.448,-0.73
2.45,-0.74
2.452,-0.77
2.454,-0.875
2.456,-0.805
2.458,-0.795
2.46,-0.845
2.462,-0.79
2.464,-0.695
2.466,-0.61
2.468,-0.64
2.47,-0.71
2.472,-0.79
2.474,-0.775
2.476,-0.885
2.478,-0.855
2.48,-0.78
2.482,-0.64
2.484,-0.745
2.486,-0.685
2.488,-0.69
2.49,-0.65
2.492,-0.795
2.494,-0.875
2.496,-1.005
2.498,-0.985
2.5,-0.895
2.502,-0.825
2.504,-0.67
2.506,-0.7
2.508,-0.735
2.51,-0.765
2.512,-0.76
2.514,-0.965
2.516,-1.025
2.518,-1
2.52,-0.925
2.522,-0.81
2.524,-0.515
2.526,-0.585
2.528,-0.66
2.53,-0.765
2.532,-0.845
2.534,-0.88
2.536,-0.89
2.538,-0.905
2.54,-0.81
2.542,-0.805
2.544,-0.7
2.546,-0.7
2.548,-0.62
2.55,-0.725
2.552,-0.745
2.554,-0.865
2.556,-0.875
2.558,-0.865
2.56,-0.815
2.562,-0.705
2.564,-0.7
2.566,-0.695
2.568,-0.71
2.57,-0.67
2.572,-0.725
2.574,-0.8
2.576,-0.875
2.578,-0.775
2.58,-0.59
2.582,-0.505
2.584,-0.33
2.586,-0.315
2.588,-0.29
2.59,-0.19
2.592,-0.225
2.594,-0.485
2.596,-0.465
2.598,-0.46
2.6,-0.435
2.602,-0.54
2.604,-0.39
2.606,-0.44
2.608,-0.52
2.61,-0.57
2.612,-0.605
2.614,-0.78
2.616,-0.75
2.618,-0.705
2.62,-0.7
2.622,-0.745
2.624,-0.78
2.626,-0.79
2.628,-0.845
2.63,-0.855
2.632,-0.78
2.634,-0.825
2.636,-0.86
2.638,-0.85
2.64,-0.735
2.642,-0.66
2.644,-0.615
2.646,-0.62
2.648,-0.65
2.65,-0.745
2.652,-0.815
2.654,-0.92
2.656,-0.805
2.658,-0.76
2.66,-0.68
2.662,-0.675
2.664,-0.625
2.666,-0.74
2.668,-0.735
2.67,-0.83
2.672,-0.85
2.674,-0.97
2.676,-0.895
2.678,-0.895
2.68,-0.84
2.682,-0.655
2.684,-0.49
2.686,-0.625
2.688,-0.665
2.69,-0.715
2.692,-0.84
2.694,-0.94
2.696,-0.83
2.698,-0.765
2.7,-0.715
2.702,-0.745
2.704,-0.595
2.706,-0.655
2.708,-0.7
2.71,-0.73
2.712,-0.73
2.714,-0.855
2.716,-0.895
2.718,-0.865
2.72,-0.79
2.722,-0.705
2.724,-0.555
2.726,-0.58
2.728,-0.585
2.73,-0.705
2.732,-0.805
2.734,-0.845
2.736,-0.84
2.738,-0.74
2.74,-0.705
2.742,-0.645
2.744,-0.6
2.746,-0.645
2.748,-0.735
2.75,-0.85
2.752,-0.945
2.754,-0.91
2.756,-0.85
2.758,-0.71
2.76,-0.63
2.762,-0.59
2.764,-0.52
2.766,-0.52
2.768,-0.67
2.77,-0.75
2.772,-0.85
2.774,-0.83
2.776,-0.825
2.778,-0.795
2.78,-0.72
2.782,-0.545
2.784,-0.545
2.786,-0.615
2.788,-0.58
2.79,-0.58
2.792,-0.74
2.794,-0.755
2.796,-0.71
2.798,-0.7
2.8,-0.64
2.802,-0.59
2.804,-0.575
2.806,-0.59
2.808,-0.63
2.81,-0.71
2.812,-0.805
2.814,-0.775
2.816,-0.82
2.818,-0.66
2.82,-0.545
2.822,-0.565
2.824,-0.525
2.826,-0.505
2.828,-0.48
2.83,-0.59
2.832,-0.73
2.834,-0.715
2.836,-0.7
2.838,-0.55
2.84,-0.47
2.842,-0.375
2.844,-0.385
2.846,-0.41
2.848,-0.51
2.85,-0.505
2.852,-0.605
2.854,-0.65
2.856,-0.565
2.858,-0.425
2.86,-0.36
2.862,-0.32
2.864,-0.31
2.866,-0.355
2.868,-0.465
2.87,-0.645
2.872,-0.75
2.874,-0.74
2.876,-0.515
2.878,-0.43
2.88,-0.465
2.882,-0.35
2.884,-0.375
2.886,-0.42
2.888,-0.495
2.89,-0.495
2.892,-0.595
2.894,-0.635
2.896,-0.665
2.898,-0.66
2.9,-0.565
2.902,-0.445
2.904,-0.48
2.906,-0.53
2.908,-0.63
2.91,-0.705
2.912,-0.79
2.914,-0.765
2.916,-0.68
2.918,-0.605
2.92,-0.58
2.922,-0.495
2.924,-0.56
2.926,-0.655
2.928,-0.655
2.93,-0.795
2.932,-0.86
2.934,-0.855
2.936,-0.84
2.938,-0.815
2.94,-0.63
2.942,-0.615
2.944,-0.645
2.946,-0.74
2.948,-0.73
2.95,-0.765
2.952,-0.845
2.954,-0.86
2.956,-0.86
2.958,-0.87
2.96,-0.67
2.962,-0.635
2.964,-0.645
2.966,-0.775
2.968,-0.765
2.97,-0.87
2.972,-0.94
2.974,-0.875
2.976,-0.795
2.978,-0.675
2.98,-0.68
2.982,-0.56
2.984,-0.585
2.986,-0.685
2.988,-0.73
2.99,-0.755
2.992,-0.81
2.994,-0.86
2.996,-0.955
2.998,-0.945
3,-0.78
3.002,-0.525
3.004,-0.485
3.006,-0.68
3.008,-0.74
3.01,-0.82
3.012,-0.83
3.014,-0.85
3.016,-0.8
3.018,-0.635
3.02,-0.685
3.022,-0.72
3.024,-0.695
3.026,-0.745
3.028,-0.82
3.03,-0.8
3.032,-0.885
3.034,-0.93
3.036,-0.83
3.038,-0.71
3.04,-0.715
3.042,-0.675
3.044,-0.635
3.046,-0.69
3.048,-0.715
3.05,-0.835
3.052,-0.84
3.054,-0.84
3.056,-0.785
3.058,-0.73
3.06,-0.71
3.062,-0.675
3.064,-0.605
3.066,-0.695
3.068,-0.83
3.07,-1
3.072,-0.77
3.074,-0.865
3.076,-0.87
3.078,-0.76
3.08,-0.585
3.082,-0.565
3.084,-0.605
3.086,-0.705
3.088,-0.805
3.09,-0.775
3.092,-0.74
3.094,-0.785
3.096,-0.745
3.098,-0.72
3.1,-0.645
3.102,-0.65
3.104,-0.7
3.106,-0.73
3.108,-0.775
3.11,-0.855
3.112,-0.79
3.114,-0.73
3.116,-0.75
3.118,-0.705
3.12,-0.5
3.122,-0.52
3.124,-0.57
3.126,-0.68
3.128,-0.75
3.13,-0.845
3.132,-0.835
3.134,-0.84
3.136,-0.735
3.138,-0.775
3.14,-0.67
3.142,-0.57
3.144,-0.645
3.146,-0.725
3.148,-0.66
3.15,-0.79
3.152,-0.79
3.154,-0.865
3.156,-0.71
3.158,-0.74
3.16,-0.635
3.162,-0.64
3.164,-0.595
3.166,-0.705
3.168,-0.73
3.17,-0.825
3.172,-0.85
3.174,-0.8
3.176,-0.74
3.178,-0.715
3.18,-0.58
3.182,-0.63
3.184,-0.665
3.186,-0.695
3.188,-0.625
3.19,-0.725
3.192,-0.77
3.194,-0.81
3.196,-0.685
3.198,-0.765
3.2,-0.605
3.202,-0.785
3.204,-0.715
3.206,-0.64
3.208,-0.715
3.21,-0.84
3.212,-0.775
3.214,-0.72
3.216,-0.685
3.218,-0.545
3.22,-0.515
3.222,-0.52
3.224,-0.615
3.226,-0.67
3.228,-0.725
3.23,-0.875
3.232,-0.82
3.234,-0.68
3.236,-0.71
3.238,-0.7
3.24,-0.615
3.242,-0.62
3.244,-0.615
3.246,-0.64
3.248,-0.72
3.25,-0.745
3.252,-0.67
3.254,-0.745
3.256,-0.675
3.258,-0.615
3.26,-0.56
3.262,-0.62
3.264,-0.66
3.266,-0.775
3.268,-0.68
3.27,-0.775
3.272,-0.78
3.274,-0.705
3.276,-0.68
3.278,-0.62
3.28,-0.475
3.282,-0.58
3.284,-0.555
3.286,-0.685
3.288,-0.865
3.29,-0.875
3.292,-0.79
3.294,-0.69
3.296,-0.56
3.298,-0.54
3.3,-0.515
3.302,-0.61
3.304,-0.72
3.306,-0.655
3.308,-0.74
3.31,-0.775
3.312,-0.725
3.314,-0.62
3.316,-0.605
3.318,-0.61
3.32,-0.57
3.322,-0.655
3.324,-0.7
3.326,-0.675
3.328,-0.8
3.33,-0.85
3.332,-0.79
3.334,-0.77
3.336,-0.625
3.338,-0.495
3.34,-0.52
3.342,-0.69
3.344,-0.635
3.346,-0.63
3.348,-0.735
3.35,-0.76
3.352,-0.74
3.354,-0.6
3.356,-0.575
3.358,-0.565
3.36,-0.475
3.362,-0.545
3.364,-0.575
3.366,-0.62
3.368,-0.71
3.37,-0.735
3.372,-0.7
3.374,-0.61
3.376,-0.585
3.378,-0.44
3.38,-0.445
3.382,-0.55
3.384,-0.56
3.386,-0.605
3.388,-0.78
3.39,-0.77
3.392,-0.695
3.394,-0.635
3.396,-0.57
3.398,-0.595
3.4,-0.535
3.402,-0.54
3.404,-0.65
3.406,-0.64
3.408,-0.625
3.41,-0.675
3.412,-0.63
3.414,-0.615
3.416,-0.585
3.418,-0.53
3.42,-0.54
3.422,-0.61
3.424,-0.705
3.426,-0.715
3.428,-0.74
3.43,-0.67
3.432,-0.665
3.434,-0.64
3.436,-0.6
3.438,-0.515
3.44,-0.51
3.442,-0.565
3.444,-0.715
3.446,-0.705
3.448,-0.845
3.45,-0.765
3.452,-0.77
3.454,-0.69
3.456,-0.72
3.458,-0.65
3.46,-0.615
3.462,-0.635
3.464,-0.615
3.466,-0.64
3.468,-0.66
3.47,-0.79
3.472,-0.675
3.474,-0.64
3.476,-0.645
3.478,-0.565
3.48,-0.6
3.482,-0.67
3.484,-0.65
3.486,-0.75
3.488,-0.875
3.49,-0.87
3.492,-0.69
3.494,-0.625
3.496,-0.6
3.498,-0.59
3.5,-0.585
3.502,-0.62
3.504,-0.665
3.506,-0.77
3.508,-0.87
3.51,-0.815
3.512,-0.785
3.514,-0.745
3.516,-0.71
3.518,-0.695
3.52,-0.48
3.522,-0.555
3.524,-0.675
3.526,-0.73
3.528,-0.96
3.53,-0.825
3.532,-0.71
3.534,-0.535
3.536,-0.475
3.538,-0.375
3.54,-0.29
3.542,-0.265
3.544,-0.35
3.546,-0.33
3.548,-0.27
3.55,-0.28
3.552,-0.22
3.554,-0.165
3.556,-0.18
3.558,-0.17
3.56,-0.215
3.562,-0.37
3.564,-0.52
3.566,-0.505
3.568,-0.615
3.57,-0.545
3.572,-0.54
3.574,-0.475
3.576,-0.495
3.578,-0.525
3.58,-0.675
3.582,-0.785
3.584,-0.79
3.586,-0.85
3.588,-0.78
3.59,-0.775
3.592,-0.655
3.594,-0.575
3.596,-0.485
3.598,-0.52
3.6,-0.585
3.602,-0.665
3.604,-0.735
3.606,-0.775
3.608,-0.83
3.61,-0.775
3.612,-0.68
3.614,-0.71
3.616,-0.505
3.618,-0.565
3.62,-0.775
3.622,-0.845
3.624,-0.725
3.626,-0.735
3.628,-0.76
3.63,-0.69
3.632,-0.655
3.634,-0.675
3.636,-0.63
3.638,-0.64
3.64,-0.62
3.642,-0.64
3.644,-0.71
3.646,-0.805
3.648,-0.75
3.65,-0.805
3.652,-0.72
3.654,-0.575
3.656,-0.565
3.658,-0.575
3.66,-0.68
3.662,-0.64
3.664,-0.665
3.666,-0.745
3.668,-0.8
3.67,-0.72
3.672,-0.765
3.674,-0.72
3.676,-0.615
3.678,-0.655
3.68,-0.72
3.682,-0.79
3.684,-0.73
3.686,-0.85
3.688,-0.83
3.69,-0.75
3.692,-0.625
3.694,-0.545
3.696,-0.455
3.698,-0.585
3.7,-0.635
3.702,-0.645
3.704,-0.71
3.706,-0.79
3.708,-0.79
3.71,-0.695
3.712,-0.7
3.714,-0.63
3.716,-0.475
3.718,-0.455
3.72,-0.63
3.722,-0.7
3.724,-0.73
3.726,-0.695
3.728,-0.695
3.73,-0.725
3.732,-0.69
3.734,-0.615
3.736,-0.545
3.738,-0.5
3.74,-0.545
3.742,-0.585
3.744,-0.735
3.746,-0.865
3.748,-0.77
3.75,-0.795
3.752,-0.645
3.754,-0.57
3.756,-0.555
3.758,-0.51
3.76,-0.53
3.762,-0.675
3.764,-0.68
3.766,-0.785
3.768,-0.675
3.77,-0.56
3.772,-0.505
3.774,-0.515
3.776,-0.385
3.778,-0.43
3.78,-0.495
3.782,-0.495
3.784,-0.605
3.786,-0.67
3.788,-0.69
3.79,-0.51
3.792,-0.41
3.794,-0.525
3.796,-0.395
3.798,-0.41
3.8,-0.465
3.802,-0.585
3.804,-0.58
3.806,-0.605
3.808,-0.565
3.81,-0.53
3.812,-0.42
3.814,-0.425
3.816,-0.395
3.818,-0.315
3.82,-0.345
3.822,-0.465
3.824,-0.535
3.826,-0.58
3.828,-0.515
3.83,-0.43
3.832,-0.425
3.834,-0.44
3.836,-0.365
3.838,-0.29
3.84,-0.425
3.842,-0.55
3.844,-0.65
3.846,-0.645
3.848,-0.49
3.85,-0.495
3.852,-0.515
3.854,-0.465
3.856,-0.47
3.858,-0.51
3.86,-0.59
3.862,-0.66
3.864,-0.775
3.866,-0.795
3.868,-0.665
3.87,-0.61
3.872,-0.57
3.874,-0.58
3.876,-0.565
3.878,-0.62
3.88,-0.625
3.882,-0.665
3.884,-0.895
3.886,-0.95
3.888,-0.8
3.89,-0.545
3.892,-0.54
3.894,-0.51
3.896,-0.495
3.898,-0.565
3.9,-0.695
3.902,-0.865
3.904,-0.905
3.906,-0.865
3.908,-0.84
3.91,-0.745
3.912,-0.7
3.914,-0.66
3.916,-0.615
3.918,-0.61
3.92,-0.665
3.922,-0.705
3.924,-0.855
3.926,-0.9
3.928,-0.79
3.93,-0.74
3.932,-0.745
3.934,-0.675
3.936,-0.65
3.938,-0.725
3.94,-0.755
3.942,-0.795
3.944,-0.85
3.946,-0.76
3.948,-0.75
3.95,-0.72
3.952,-0.62
3.954,-0.505
3.956,-0.64
3.958,-0.785
3.96,-0.84
3.962,-0.825
3.964,-0.925
3.966,-0.86
3.968,-0.755
3.97,-0.715
3.972,-0.68
3.974,-0.67
3.976,-0.71
3.978,-0.79
3.98,-0.885
3.982,-0.88
3.984,-0.88
3.986,-0.86
3.988,-0.805
3.99,-0.815
3.992,-0.825
3.994,-0.655
3.996,-0.56
3.998,-0.65
4,-0.74
4.002,-0.695
4.004,-0.78
4.006,-0.78
4.008,-0.765
4.01,-0.74
4.012,-0.64
4.014,-0.695
4.016,-0.65
4.018,-0.65
4.02,-0.795
4.022,-0.81
4.024,-0.81
4.026,-0.795
4.028,-0.74
4.03,-0.715
4.032,-0.745
4.034,-0.68
4.036,-0.75
4.038,-0.81
4.04,-1
4.042,-0.76
4.044,-0.885
4.046,-0.855
4.048,-0.85
4.05,-0.755
4.052,-0.69
4.054,-0.655
4.056,-0.76
4.058,-0.74
4.06,-0.74
4.062,-0.7
4.064,-0.85
4.066,-0.81
4.068,-0.74
4.07,-0.695
4.072,-0.76
4.074,-0.63
4.076,-0.645
4.078,-0.655
4.08,-0.78
4.082,-0.865
4.084,-0.925
4.086,-0.665
4.088,-0.73
4.09,-0.79
4.092,-0.735
4.094,-0.595
4.096,-0.56
4.098,-0.595
4.1,-0.675
4.102,-0.765
4.104,-0.82
4.106,-0.855
4.108,-0.825
4.11,-0.725
4.112,-0.64
4.114,-0.615
4.116,-0.675
4.118,-0.745
4.12,-0.84
4.122,-0.855
4.124,-0.9
4.126,-0.88
4.128,-0.85
4.13,-0.74
4.132,-0.69
4.134,-0.66
4.136,-0.74
4.138,-0.815
4.14,-0.855
4.142,-0.71
4.144,-0.885
4.146,-0.84
4.148,-0.835
4.15,-0.625
4.152,-0.495
4.154,-0.56
4.156,-0.6
4.158,-0.685
4.16,-0.79
4.162,-0.91
4.164,-0.84
4.166,-0.85
4.168,-0.79
4.17,-0.66
4.172,-0.59
4.174,-0.575
4.176,-0.645
4.178,-0.76
4.18,-0.805
4.182,-0.89
4.184,-0.865
4.186,-0.83
4.188,-0.71
4.19,-0.65
4.192,-0.61
4.194,-0.64
4.196,-0.715
4.198,-0.74
4.2,-0.745
4.202,-0.82
4.204,-0.84
4.206,-0.885
4.208,-0.88
4.21,-0.76
4.212,-0.64
4.214,-0.63
4.216,-0.65
4.218,-0.795
4.22,-0.855
4.222,-0.785
4.224,-0.83
4.226,-0.8
4.228,-0.74
4.23,-0.77
4.232,-0.615
4.234,-0.625
4.236,-0.63
4.238,-0.695
4.24,-0.78
4.242,-0.88
4.244,-0.925
4.246,-0.895
4.248,-0.765
4.25,-0.625
4.252,-0.585
4.254,-0.58
4.256,-0.61
4.258,-0.7
4.26,-0.83
4.262,-0.905
4.264,-0.87
4.266,-0.77
4.268,-0.81
4.27,-0.665
4.272,-0.535
4.274,-0.605
4.276,-0.77
4.278,-0.875
4.28,-0.84
4.282,-0.845
4.284,-0.78
4.286,-0.765
4.288,-0.725
4.29,-0.695
4.292,-0.56
4.294,-0.61
4.296,-0.73
4.298,-0.855
4.3,-0.805
4.302,-0.815
4.304,-0.805
4.306,-0.78
4.308,-0.75
4.31,-0.61
4.312,-0.59
4.314,-0.715
4.316,-0.685
4.318,-0.645
4.32,-0.66
4.322,-0.705
4.324,-0.8
4.326,-0.755
4.328,-0.635
4.33,-0.495
4.332,-0.43
4.334,-0.565
4.336,-0.56
4.338,-0.535
4.34,-0.775
4.342,-0.87
4.344,-0.745
4.346,-0.675
4.348,-0.595
4.35,-0.665
4.352,-0.655
4.354,-0.56
4.356,-0.675
4.358,-0.73
4.36,-0.815
4.362,-0.86
4.364,-0.815
4.366,-0.72
4.368,-0.64
4.37,-0.64
4.372,-0.62
4.374,-0.635
4.376,-0.695
4.378,-0.775
4.38,-0.895
4.382,-0.75
4.384,-0.695
4.386,-0.715
4.388,-0.63
4.39,-0.54
4.392,-0.55
4.394,-0.585
4.396,-0.685
4.398,-0.735
4.4,-0.775
4.402,-0.86
4.404,-0.835
4.406,-0.715
4.408,-0.71
4.41,-0.675
4.412,-0.7
4.414,-0.71
4.416,-0.64
4.418,-0.665
4.42,-0.685
4.422,-0.75
4.424,-0.72
4.426,-0.7
4.428,-0.64
4.43,-0.505
4.432,-0.515
4.434,-0.63
4.436,-0.755
4.438,-0.78
4.44,-0.88
4.442,-0.895
4.444,-0.805
4.446,-0.66
4.448,-0.71
4.45,-0.66
4.452,-0.63
4.454,-0.655
4.456,-0.765
4.458,-0.675
4.46,-0.725
4.462,-0.74
4.464,-0.73
4.466,-0.61
4.468,-0.49
4.47,-0.475
4.472,-0.465
4.474,-0.335
4.476,-0.38
4.478,-0.375
4.48,-0.33
4.482,-0.19
4.484,-0.125
4.486,-0.09
4.488,-0.105
4.49,-0.035
4.492,-0.095
4.494,-0.325
4.496,-0.33
4.498,-0.34
4.5,-0.54
4.502,-0.595
4.504,-0.615
4.506,-0.55
4.508,-0.505
4.51,-0.455
4.512,-0.415
4.514,-0.51
4.516,-0.635
4.518,-0.685
4.52,-0.775
4.522,-0.73
4.524,-0.715
4.526,-0.585
4.528,-0.545
4.53,-0.635
4.532,-0.62
4.534,-0.555
4.536,-0.62
4.538,-0.665
4.54,-0.74
4.542,-0.775
4.544,-0.715
4.546,-0.655
4.548,-0.62
4.55,-0.58
4.552,-0.58
4.554,-0.625
4.556,-0.72
4.558,-0.735
4.56,-0.795
4.562,-0.74
4.564,-0.625
4.566,-0.505
4.568,-0.48
4.57,-0.495
4.572,-0.495
4.574,-0.685
4.576,-0.785
4.578,-0.82
4.58,-0.835
4.582,-0.645
4.584,-0.76
4.586,-0.65
4.588,-0.62
4.59,-0.605
4.592,-0.565
4.594,-0.615
4.596,-0.69
4.598,-0.74
4.6,-0.84
4.602,-0.775
4.604,-0.715
4.606,-0.615
4.608,-0.665
4.61,-0.595
4.612,-0.46
4.614,-0.485
4.616,-0.64
4.618,-0.715
4.62,-0.76
4.622,-0.675
4.624,-0.61
4.626,-0.555
4.628,-0.495
4.63,-0.465
4.632,-0.39
4.634,-0.4
4.636,-0.56
4.638,-0.595
4.64,-0.74
4.642,-0.695
4.644,-0.695
4.646,-0.57
4.648,-0.51
4.65,-0.48
4.652,-0.54
4.654,-0.58
4.656,-0.72
4.658,-0.755
4.66,-0.965
4.662,-0.785
4.664,-0.595
4.666,-0.485
4.668,-0.44
4.67,-0.475
4.672,-0.5
4.674,-0.49
4.676,-0.585
4.678,-0.675
4.68,-0.665
4.682,-0.6
4.684,-0.615
4.686,-0.525
4.688,-0.565
4.69,-0.46
4.692,-0.55
4.694,-0.51
4.696,-0.495
4.698,-0.6
4.7,-0.61
4.702,-0.575
4.704,-0.405
4.706,-0.41
4.708,-0.42
4.71,-0.44
4.712,-0.415
4.714,-0.615
4.716,-0.415
4.718,-0.55
4.72,-0.615
4.722,-0.575
4.724,-0.49
4.726,-0.445
4.728,-0.36
4.73,-0.3
4.732,-0.325
4.734,-0.36
4.736,-0.44
4.738,-0.58
4.74,-0.46
4.742,-0.445
4.744,-0.29
4.746,-0.32
4.748,-0.265
4.75,-0.285
4.752,-0.28
4.754,-0.215
4.756,-0.365
4.758,-0.385
4.76,-0.295
4.762,-0.24
4.764,-0.17
4.766,-0.315
4.768,-0.26
4.77,-0.34
4.772,-0.4
4.774,-0.475
4.776,-0.555
4.778,-0.595
4.78,-0.45
4.782,-0.445
4.784,-0.3
4.786,-0.235
4.788,-0.28
4.79,-0.4
4.792,-0.44
4.794,-0.49
4.796,-0.565
4.798,-0.645
4.8,-0.59
4.802,-0.665
4.804,-0.53
4.806,-0.52
4.808,-0.415
4.81,-0.485
4.812,-0.62
4.814,-0.7
4.816,-0.645
4.818,-0.81
4.82,-0.895
4.822,-0.615
4.824,-0.56
4.826,-0.55
4.828,-0.52
4.83,-0.505
4.832,-0.475
4.834,-0.59
4.836,-0.585
4.838,-0.655
4.84,-0.72
4.842,-0.685
4.844,-0.715
4.846,-0.655
4.848,-0.52
4.85,-0.595
4.852,-0.645
4.854,-0.775
4.856,-0.835
4.858,-0.87
4.86,-0.735
4.862,-0.78
4.864,-0.75
4.866,-0.665
4.868,-0.625
4.87,-0.645
4.872,-0.745
4.874,-0.745
4.876,-0.84
4.878,-0.955
4.88,-0.925
4.882,-0.815
4.884,-0.77
4.886,-0.655
4.888,-0.65
4.89,-0.62
4.892,-0.68
4.894,-0.715
4.896,-0.76
4.898,-0.88
4.9,-0.91
4.902,-0.795
4.904,-0.635
4.906,-0.53
4.908,-0.51
4.91,-0.55
4.912,-0.725
4.914,-0.745
4.916,-0.805
4.918,-0.925
4.92,-0.925
4.922,-0.745
4.924,-0.755
4.926,-0.77
4.928,-0.67
4.93,-0.625
4.932,-0.72
4.934,-0.815
4.936,-0.835
4.938,-0.91
4.94,-0.95
4.942,-0.925
4.944,-0.88
4.946,-0.82
4.948,-0.64
4.95,-0.53
4.952,-0.705
4.954,-0.73
4.956,-0.78
4.958,-0.875
4.96,-0.83
4.962,-0.795
4.964,-0.795
4.966,-0.805
4.968,-0.805
4.97,-0.66
4.972,-0.725
4.974,-0.735
4.976,-0.85
4.978,-0.89
4.98,-0.845
4.982,-0.76
4.984,-0.705
4.986,-0.615
4.988,-0.64
4.99,-0.695
4.992,-0.73
4.994,-0.865
4.996,-0.865
4.998,-0.83
5,-0.84
5.002,-0.785
5.004,-0.735
5.006,-0.615
5.008,-0.65
5.01,-0.67
5.012,-0.855
5.014,-0.945
5.016,-0.99
5.018,-0.835
5.02,-0.81
5.022,-0.865
5.024,-0.835
5.026,-0.62
5.028,-0.635
5.03,-0.68
5.032,-0.69
5.034,-0.705
5.036,-0.925
5.038,-0.855
5.04,-0.83
5.042,-0.78
5.044,-0.76
5.046,-0.715
5.048,-0.715
5.05,-0.67
5.052,-0.815
5.054,-0.88
5.056,-0.905
5.058,-0.91
5.06,-0.8
5.062,-0.72
5.064,-0.715
5.066,-0.63
5.068,-0.75
5.07,-0.78
5.072,-0.87
5.074,-0.76
5.076,-0.91
5.078,-0.86
5.08,-0.785
5.082,-0.655
5.084,-0.7
5.086,-0.54
5.088,-0.565
5.09,-0.665
5.092,-0.795
5.094,-0.835
5.096,-0.895
5.098,-0.83
5.1,-0.795
5.102,-0.715
5.104,-0.675
5.106,-0.595
5.108,-0.58
5.11,-0.635
5.112,-0.715
5.114,-0.745
5.116,-0.785
5.118,-0.625
5.12,-0.645
5.122,-0.64
5.124,-0.665
5.126,-0.605
5.128,-0.635
5.13,-0.7
5.132,-0.73
5.134,-0.695
5.136,-0.83
5.138,-0.905
5.14,-0.925
5.142,-0.83
5.144,-0.74
5.146,-0.665
5.148,-0.655
5.15,-0.68
5.152,-0.78
5.154,-0.835
5.156,-0.83
5.158,-0.825
5.16,-0.855
5.162,-0.82
5.164,-0.72
5.166,-0.7
5.168,-0.65
5.17,-0.71
5.172,-0.88
5.174,-0.88
5.176,-0.865
5.178,-0.89
5.18,-0.81
5.182,-0.825
5.184,-0.805
5.186,-0.745
5.188,-0.775
5.19,-0.805
5.192,-0.84
5.194,-0.835
5.196,-0.97
5.198,-1.025
5.2,-0.895
5.202,-0.705
5.204,-0.75
5.206,-0.645
5.208,-0.72
5.21,-0.79
5.212,-0.83
5.214,-0.825
5.216,-0.96
5.218,-0.945
5.22,-0.745
5.222,-0.76
5.224,-0.73
5.226,-0.67
5.228,-0.73
5.23,-0.795
5.232,-0.805
5.234,-0.875
5.236,-0.875
5.238,-0.92
5.24,-0.94
5.242,-0.84
5.244,-0.75
5.246,-0.675
5.248,-0.685
5.25,-0.75
5.252,-0.875
5.254,-0.88
5.256,-0.805
5.258,-0.77
5.26,-0.68
5.262,-0.555
5.264,-0.45
5.266,-0.31
5.268,-0.22
5.27,-0.16
5.272,-0.165
5.274,-0.205
5.276,-0.135
5.278,-0.19
5.28,-0.255
5.282,-0.12
5.284,-0.1
5.286,-0.185
5.288,-0.335
5.29,-0.405
5.292,-0.515
5.294,-0.62
5.296,-0.7
5.298,-0.82
5.3,-0.73
5.302,-0.845
5.304,-0.89
5.306,-0.8
5.308,-0.86
5.31,-0.915
5.312,-0.9
5.314,-1.04
5.316,-0.95
5.318,-0.78
5.32,-0.785
5.322,-0.71
5.324,-0.565
5.326,-0.54
5.328,-0.645
5.33,-0.745
5.332,-0.79
5.334,-0.85
5.336,-0.825
5.338,-0.8
5.34,-0.82
5.342,-0.75
5.344,-0.65
5.346,-0.67
5.348,-0.855
5.35,-0.725
5.352,-0.695
5.354,-0.9
5.356,-0.85
5.358,-0.8
5.36,-0.605
5.362,-0.62
5.364,-0.605
5.366,-0.665
5.368,-0.745
5.37,-0.86
5.372,-0.835
5.374,-0.89
5.376,-0.915
5.378,-0.875
5.38,-0.805
5.382,-0.745
5.384,-0.705
5.386,-0.715
5.388,-0.74
5.39,-0.755
5.392,-0.68
5.394,-0.735
5.396,-0.785
5.398,-0.695
5.4,-0.675
5.402,-0.8
5.404,-0.575
5.406,-0.535
5.408,-0.57
5.41,-0.6
5.412,-0.7
5.414,-0.795
5.416,-0.775
5.418,-0.66
5.42,-0.645
5.422,-0.655
5.424,-0.62
5.426,-0.79
5.428,-0.59
5.43,-0.615
5.432,-0.595
5.434,-0.73
5.436,-0.71
5.438,-0.63
5.44,-0.58
5.442,-0.62
5.444,-0.5
5.446,-0.465
5.448,-0.65
5.45,-0.695
5.452,-0.715
5.454,-0.76
5.456,-0.695
5.458,-0.66
5.46,-0.56
5.462,-0.555
5.464,-0.54
5.466,-0.5
5.468,-0.535
5.47,-0.67
5.472,-0.6
5.474,-0.73
5.476,-0.77
5.478,-0.7
5.48,-0.505
5.482,-0.475
5.484,-0.385
5.486,-0.47
5.488,-0.47
5.49,-0.38
5.492,-0.43
5.494,-0.415
5.496,-0.465
5.498,-0.445
5.5,-0.34
5.502,-0.355
5.504,-0.415
5.506,-0.34
5.508,-0.435
5.51,-0.455
5.512,-0.415
5.514,-0.51
5.516,-0.51
5.518,-0.41
5.52,-0.325
5.522,-0.305
5.524,-0.27
5.526,-0.3
5.528,-0.325
5.53,-0.33
5.532,-0.49
5.534,-0.555
5.536,-0.52
5.538,-0.435
5.54,-0.38
5.542,-0.385
5.544,-0.38
5.546,-0.36
5.548,-0.35
5.55,-0.41
5.552,-0.425
5.554,-0.425
5.556,-0.485
5.558,-0.385
5.56,-0.415
5.562,-0.22
5.564,-0.23
5.566,-0.38
5.568,-0.395
5.57,-0.53
5.572,-0.465
5.574,-0.44
5.576,-0.495
5.578,-0.495
5.58,-0.465
5.582,-0.385
5.584,-0.375
5.586,-0.435
5.588,-0.55
5.59,-0.545
5.592,-0.705
5.594,-0.635
5.596,-0.57
5.598,-0.525
5.6,-0.48
5.602,-0.42
5.604,-0.49
5.606,-0.545
5.608,-0.67
5.61,-0.71
5.612,-0.95
5.614,-0.935
5.616,-0.575
5.618,-0.575
5.62,-0.655
5.622,-0.565
5.624,-0.57
5.626,-0.44
5.628,-0.565
5.63,-0.565
5.632,-0.71
5.634,-0.63
5.636,-0.735
5.638,-0.835
5.64,-0.495
5.642,-0.495
5.644,-0.49
5.646,-0.46
5.648,-0.585
5.65,-0.69
5.652,-0.72
5.654,-0.74
5.656,-0.625
5.658,-0.605
5.66,-0.51
5.662,-0.38
5.664,-0.465
5.666,-0.545
5.668,-0.66
5.67,-0.745
5.672,-0.785
5.674,-0.66
5.676,-0.69
5.678,-0.5
5.68,-0.475
5.682,-0.445
5.684,-0.48
5.686,-0.495
5.688,-0.535
5.69,-0.635
5.692,-0.725
5.694,-0.7
5.696,-0.695
5.698,-0.695
5.7,-0.675
5.702,-0.585
5.704,-0.45
5.706,-0.51
5.708,-0.625
5.71,-0.62
5.712,-0.73
5.714,-0.645
5.716,-0.61
5.718,-0.605
5.72,-0.575
5.722,-0.625
5.724,-0.69
5.726,-0.555
5.728,-0.525
5.73,-0.5
5.732,-0.635
5.734,-0.65
5.736,-0.635
5.738,-0.61
5.74,-0.51
5.742,-0.475
5.744,-0.565
5.746,-0.535
5.748,-0.66
5.75,-0.74
5.752,-0.745
5.754,-0.67
5.756,-0.675
5.758,-0.54
5.76,-0.49
5.762,-0.44
5.764,-0.5
5.766,-0.62
5.768,-0.64
5.77,-0.685
5.772,-0.86
5.774,-0.82
5.776,-0.77
5.778,-0.55
5.78,-0.48
5.782,-0.54
5.784,-0.565
5.786,-0.565
5.788,-0.66
5.79,-0.71
5.792,-0.68
5.794,-0.58
5.796,-0.61
5.798,-0.57
5.8,-0.635
5.802,-0.4
5.804,-0.46
5.806,-0.38
5.808,-0.5
5.81,-0.505
5.812,-0.6
5.814,-0.65
5.816,-0.595
5.818,-0.44
5.82,-0.375
5.822,-0.39
5.824,-0.4
5.826,-0.49
5.828,-0.525
5.83,-0.61
5.832,-0.6
5.834,-0.55
5.836,-0.63
5.838,-0.525
5.84,-0.55
5.842,-0.545
5.844,-0.485
5.846,-0.46
5.848,-0.53
5.85,-0.615
5.852,-0.76
5.854,-0.75
5.856,-0.71
5.858,-0.63
5.86,-0.675
5.862,-0.475
5.864,-0.505
5.866,-0.565
5.868,-0.585
5.87,-0.67
5.872,-0.63
5.874,-0.65
5.876,-0.615
5.878,-0.615
5.88,-0.65
5.882,-0.57
5.884,-0.735
5.886,-0.605
5.888,-0.735
5.89,-0.825
5.892,-0.705
5.894,-0.575
5.896,-0.505
5.898,-0.52
5.9,-0.435
5.902,-0.445
5.904,-0.59
5.906,-0.635
5.908,-0.61
5.91,-0.74
5.912,-0.7
5.914,-0.605
5.916,-0.635
5.918,-0.565
5.92,-0.4
5.922,-0.45
5.924,-0.54
5.926,-0.585
5.928,-0.67
5.93,-0.755
5.932,-0.74
5.934,-0.66
5.936,-0.64
5.938,-0.585
5.94,-0.43
5.942,-0.44
5.944,-0.58
5.946,-0.635
5.948,-0.625
5.95,-0.67
5.952,-0.68
5.954,-0.74
5.956,-0.61
5.958,-0.515
5.96,-0.335
5.962,-0.4
5.964,-0.455
5.966,-0.29
5.968,-0.35
5.97,-0.365
5.972,-0.21
5.974,-0.05
5.976,0.08
5.978,0.205
5.98,0.275
5.982,0.155
5.984,-0.025
5.986,-0.125
5.988,-0.16
5.99,-0.36
5.992,-0.34
5.994,-0.415
5.996,-0.36
5.998,-0.3
6,-0.425
6.002,-0.5
6.004,-0.62
6.006,-0.71
6.008,-0.765
6.01,-0.83
6.012,-0.785
6.014,-0.63
6.016,-0.555
6.018,-0.545
6.02,-0.475
6.022,-0.52
6.024,-0.555
6.026,-0.59
6.028,-0.49
6.03,-0.575
6.032,-0.695
6.034,-0.615
6.036,-0.545
6.038,-0.565
6.04,-0.44
6.042,-0.39
6.044,-0.465
6.046,-0.545
6.048,-0.655
6.05,-0.79
6.052,-0.75
6.054,-0.74
6.056,-0.62
6.058,-0.525
6.06,-0.47
6.062,-0.53
6.064,-0.23
6.066,-0.45
6.068,-0.56
6.07,-0.615
6.072,-0.625
6.074,-0.525
6.076,-0.44
6.078,-0.395
6.08,-0.375
6.082,-0.43
6.084,-0.485
6.086,-0.6
6.088,-0.655
6.09,-0.67
6.092,-0.62
6.094,-0.53
6.096,-0.475
6.098,-0.465
6.1,-0.42
6.102,-0.34
6.104,-0.48
6.106,-0.62
6.108,-0.65
6.11,-0.575
6.112,-0.55
6.114,-0.54
6.116,-0.46
6.118,-0.415
6.12,-0.48
6.122,-0.545
6.124,-0.57
6.126,-0.625
6.128,-0.59
6.13,-0.54
6.132,-0.425
6.134,-0.38
6.136,-0.355
6.138,-0.4
6.14,-0.44
6.142,-0.36
6.144,-0.385
6.146,-0.485
6.148,-0.55
6.15,-0.575
6.152,-0.535
6.154,-0.43
6.156,-0.4
6.158,-0.36
6.16,-0.38
6.162,-0.385
6.164,-0.455
6.166,-0.5
6.168,-0.555
6.17,-0.56
6.172,-0.495
6.174,-0.43
6.176,-0.335
6.178,-0.28
6.18,-0.35
6.182,-0.455
6.184,-0.535
6.186,-0.645
6.188,-0.68
6.19,-0.33
6.192,-0.36
6.194,-0.21
6.196,-0.315
6.198,-0.245
6.2,-0.24
6.202,-0.225
6.204,-0.38
6.206,-0.41
6.208,-0.425
6.21,-0.46
6.212,-0.375
6.214,-0.385
6.216,-0.195
6.218,-0.06
6.22,-0.075
6.222,-0.165
6.224,-0.23
6.226,-0.225
6.228,-0.31
6.23,-0.335
6.232,-0.265
6.234,-0.25
6.236,-0.19
6.238,-0.06
6.24,-0.13
6.242,-0.18
6.244,-0.28
6.246,-0.31
6.248,-0.38
6.25,-0.295
6.252,-0.345
6.254,-0.295
6.256,-0.205
6.258,-0.19
6.26,-0.175
6.262,-0.175
6.264,-0.195
6.266,-0.195
6.268,-0.405
6.27,-0.405
6.272,-0.365
6.274,-0.375
6.276,-0.225
6.278,-0.135
6.28,-0.205
6.282,-0.28
6.284,-0.355
6.286,-0.325
6.288,-0.475
6.29,-0.43
6.292,-0.385
6.294,-0.355
6.296,-0.38
6.298,-0.345
6.3,-0.365
6.302,-0.525
6.304,-0.445
6.306,-0.49
6.308,-0.56
6.31,-0.51
6.312,-0.505
6.314,-0.4
6.316,-0.35
6.318,-0.37
6.32,-0.38
6.322,-0.47
6.324,-0.51
6.326,-0.57
6.328,-0.69
6.33,-0.725
6.332,-0.605
6.334,-0.395
6.336,-0.405
6.338,-0.315
6.34,-0.325
6.342,-0.48
6.344,-0.56
6.346,-0.59
6.348,-0.645
6.35,-0.6
6.352,-0.545
6.354,-0.525
6.356,-0.435
6.358,-0.345
6.36,-0.39
6.362,-0.52
6.364,-0.6
6.366,-0.7
6.368,-0.715
6.37,-0.705
6.372,-0.655
6.374,-0.51
6.376,-0.465
6.378,-0.43
6.38,-0.44
6.382,-0.505
6.384,-0.565
6.386,-0.545
6.388,-0.6
6.39,-0.495
6.392,-0.47
6.394,-0.45
6.396,-0.35
6.398,-0.4
6.4,-0.425
6.402,-0.485
6.404,-0.465
6.406,-0.495
6.408,-0.56
6.41,-0.565
6.412,-0.575
6.414,-0.405
6.416,-0.45
6.418,-0.405
6.42,-0.435
6.422,-0.5
6.424,-0.59
6.426,-0.57
6.428,-0.58
6.43,-0.61
6.432,-0.465
6.434,-0.43
6.436,-0.375
6.438,-0.425
6.44,-0.425
6.442,-0.51
6.444,-0.605
6.446,-0.665
6.448,-0.44
6.45,-0.415
6.452,-0.495
6.454,-0.475
6.456,-0.385
6.458,-0.325
6.46,-0.37
6.462,-0.41
6.464,-0.4
6.466,-0.51
6.468,-0.48
6.47,-0.48
6.472,-0.425
6.474,-0.44
6.476,-0.37
6.478,-0.37
6.48,-0.275
6.482,-0.365
6.484,-0.405
6.486,-0.475
6.488,-0.46
6.49,-0.405
6.492,-0.4
6.494,-0.355
6.496,-0.38
6.498,-0.39
6.5,-0.46
6.502,-0.59
6.504,-0.5
6.506,-0.445
6.508,-0.585
6.51,-0.585
6.512,-0.555
6.514,-0.475
6.516,-0.31
6.518,-0.245
6.52,-0.4
6.522,-0.5
6.524,-0.56
6.526,-0.635
6.528,-0.63
6.53,-0.625
6.532,-0.605
6.534,-0.625
6.536,-0.445
6.538,-0.565
6.54,-0.35
6.542,-0.505
6.544,-0.55
6.546,-0.57
6.548,-0.59
6.55,-0.55
6.552,-0.475
6.554,-0.46
6.556,-0.485
6.558,-0.525
6.56,-0.545
6.562,-0.49
6.564,-0.55
6.566,-0.6
6.568,-0.565
6.57,-0.555
6.572,-0.595
6.574,-0.555
6.576,-0.46
6.578,-0.445
6.58,-0.49
6.582,-0.57
6.584,-0.6
6.586,-0.69
6.588,-0.645
6.59,-0.57
6.592,-0.445
6.594,-0.49
6.596,-0.44
6.598,-0.5
6.6,-0.51
6.602,-0.615
6.604,-0.58
6.606,-0.57
6.608,-0.52
6.61,-0.51
6.612,-0.525
6.614,-0.525
6.616,-0.43
6.618,-0.525
6.62,-0.45
6.622,-0.505
6.624,-0.63
6.626,-0.645
6.628,-0.595
6.63,-0.59
6.632,-0.44
6.634,-0.29
6.636,-0.315
6.638,-0.34
6.64,-0.32
6.642,-0.23
6.644,-0.15
6.646,-0.16
6.648,-0.075
6.65,0.02
6.652,0.165
6.654,0.25
6.656,0.18
6.658,0.12
6.66,-0.055
6.662,-0.155
6.664,-0.315
6.666,-0.31
6.668,-0.255
6.67,-0.175
6.672,-0.17
6.674,-0.235
6.676,-0.275
6.678,-0.36
6.68,-0.525
6.682,-0.52
6.684,-0.515
6.686,-0.615
6.688,-0.595
6.69,-0.555
6.692,-0.55
6.694,-0.56
6.696,-0.545
6.698,-0.455
6.7,-0.49
6.702,-0.495
6.704,-0.58
6.706,-0.685
6.708,-0.62
6.71,-0.58
6.712,-0.52
6.714,-0.625
6.716,-0.54
6.718,-0.44
6.72,-0.42
6.722,-0.46
6.724,-0.61
6.726,-0.48
6.728,-0.445
6.73,-0.495
6.732,-0.515
6.734,-0.5
6.736,-0.54
6.738,-0.38
6.74,-0.56
6.742,-0.575
6.744,-0.635
6.746,-0.59
6.748,-0.53
6.75,-0.505
6.752,-0.57
6.754,-0.44
6.756,-0.45
6.758,-0.535
6.76,-0.67
6.762,-0.69
6.764,-0.64
6.766,-0.595
6.768,-0.565
6.77,-0.425
6.772,-0.475
6.774,-0.475
6.776,-0.295
6.778,-0.415
6.78,-0.485
6.782,-0.555
6.784,-0.68
6.786,-0.61
6.788,-0.555
6.79,-0.565
6.792,-0.515
6.794,-0.325
6.796,-0.355
6.798,-0.43
6.8,-0.505
6.802,-0.555
6.804,-0.595
6.806,-0.6
6.808,-0.555
6.81,-0.525
6.812,-0.455
6.814,-0.345
6.816,-0.4
6.818,-0.43
6.82,-0.54
6.822,-0.705
6.824,-0.615
6.826,-0.5
6.828,-0.495
6.83,-0.47
6.832,-0.51
6.834,-0.36
6.836,-0.345
6.838,-0.415
6.84,-0.48
6.842,-0.465
6.844,-0.51
6.846,-0.425
6.848,-0.465
6.85,-0.455
6.852,-0.49
6.854,-0.35
6.856,-0.285
6.858,-0.41
6.86,-0.455
6.862,-0.575
6.864,-0.64
6.866,-0.63
6.868,-0.535
6.87,-0.485
6.872,-0.215
6.874,-0.22
6.876,-0.305
6.878,-0.36
6.88,-0.435
6.882,-0.435
6.884,-0.405
6.886,-0.35
6.888,-0.385
6.89,-0.29
6.892,-0.24
6.894,-0.22
6.896,-0.245
6.898,-0.275
6.9,-0.32
6.902,-0.375
6.904,-0.415
6.906,-0.325
6.908,-0.295
6.91,-0.3
6.912,-0.24
6.914,-0.195
6.916,-0.215
6.918,-0.315
6.92,-0.365
6.922,-0.34
6.924,-0.455
6.926,-0.28
6.928,-0.3
6.93,-0.26
6.932,-0.26
6.934,-0.17
6.936,-0.2
6.938,-0.27
6.94,-0.32
6.942,-0.4
6.944,-0.475
6.946,-0.45
6.948,-0.4
6.95,-0.27
6.952,-0.28
6.954,-0.235
6.956,-0.275
6.958,-0.4
6.96,-0.45
6.962,-0.555
6.964,-0.64
6.966,-0.595
6.968,-0.43
6.97,-0.415
6.972,-0.35
6.974,-0.335
6.976,-0.315
6.978,-0.375
6.98,-0.485
6.982,-0.585
6.984,-0.695
6.986,-0.595
6.988,-0.595
6.99,-0.515
6.992,-0.49
6.994,-0.395
6.996,-0.36
6.998,-0.465
7,-0.465
7.002,-0.555
7.004,-0.575
7.006,-0.57
7.008,-0.55
7.01,-0.615
7.012,-0.51
7.014,-0.445
7.016,-0.515
7.018,-0.53
7.02,-0.495
7.022,-0.625
7.024,-0.58
7.026,-0.555
7.028,-0.505
7.03,-0.515
7.032,-0.4
7.034,-0.46
7.036,-0.48
7.038,-0.515
7.04,-0.565
7.042,-0.69
7.044,-0.695
7.046,-0.585
7.048,-0.52
7.05,-0.405
7.052,-0.28
7.054,-0.38
7.056,-0.515
7.058,-0.52
7.06,-0.575
7.062,-0.625
7.064,-0.63
7.066,-0.57
7.068,-0.42
7.07,-0.475
7.072,-0.48
7.074,-0.45
7.076,-0.44
7.078,-0.615
7.08,-0.6
7.082,-0.585
7.084,-0.485
7.086,-0.405
7.088,-0.49
7.09,-0.49
7.092,-0.44
7.094,-0.48
7.096,-0.505
7.098,-0.485
7.1,-0.55
7.102,-0.605
7.104,-0.5
7.106,-0.53
7.108,-0.495
7.11,-0.38
7.112,-0.32
7.114,-0.25
7.116,-0.385
7.118,-0.43
7.12,-0.415
7.122,-0.56
7.124,-0.55
7.126,-0.535
7.128,-0.51
7.13,-0.52
7.132,-0.345
7.134,-0.35
7.136,-0.45
7.138,-0.475
7.14,-0.47
7.142,-0.645
7.144,-0.64
7.146,-0.545
7.148,-0.445
7.15,-0.485
7.152,-0.365
7.154,-0.47
7.156,-0.54
7.158,-0.545
7.16,-0.53
7.162,-0.68
7.164,-0.625
7.166,-0.575
7.168,-0.43
7.17,-0.545
7.172,-0.535
7.174,-0.52
7.176,-0.455
7.178,-0.51
7.18,-0.605
7.182,-0.7
7.184,-0.6
7.186,-0.53
7.188,-0.49
7.19,-0.44
7.192,-0.4
7.194,-0.435
7.196,-0.495
7.198,-0.58
7.2,-0.58
7.202,-0.625
7.204,-0.625
7.206,-0.6
7.208,-0.485
7.21,-0.4
7.212,-0.345
7.214,-0.375
7.216,-0.495
7.218,-0.605
7.22,-0.695
7.222,-0.695
7.224,-0.685
7.226,-0.68
7.228,-0.55
7.23,-0.58
7.232,-0.59
7.234,-0.685
7.236,-0.535
7.238,-0.595
7.24,-0.61
7.242,-0.585
7.244,-0.51
7.246,-0.43
7.248,-0.38
7.25,-0.38
7.252,-0.41
7.254,-0.445
7.256,-0.545
7.258,-0.505
7.26,-0.56
7.262,-0.545
7.264,-0.485
7.266,-0.445
7.268,-0.355
7.27,-0.275
7.272,-0.28
7.274,-0.295
7.276,-0.265
7.278,-0.3
7.28,-0.29
7.282,-0.19
7.284,-0.08
7.286,0.09
7.288,0.145
7.29,0.19
7.292,0.155
7.294,0.04
7.296,-0.175
7.298,-0.265
7.3,-0.39
7.302,-0.475
7.304,-0.435
7.306,-0.26
7.308,-0.34
7.31,-0.305
7.312,-0.47
7.314,-0.505
7.316,-0.415
7.318,-0.51
7.32,-0.655
7.322,-0.615
7.324,-0.555
7.326,-0.5
7.328,-0.565
7.33,-0.4
7.332,-0.385
7.334,-0.325
7.336,-0.385
7.338,-0.495
7.34,-0.575
7.342,-0.535
7.344,-0.51
7.346,-0.475
7.348,-0.42
7.35,-0.345
7.352,-0.42
7.354,-0.425
7.356,-0.55
7.358,-0.585
7.36,-0.565
7.362,-0.46
7.364,-0.415
7.366,-0.36
7.368,-0.38
7.37,-0.29
7.372,-0.39
7.374,-0.425
7.376,-0.525
7.378,-0.44
7.38,-0.55
7.382,-0.575
7.384,-0.605
7.386,-0.625
7.388,-0.565
7.39,-0.26
7.392,-0.305
7.394,-0.385
7.396,-0.45
7.398,-0.475
7.4,-0.515
7.402,-0.615
7.404,-0.57
7.406,-0.59
7.408,-0.555
7.41,-0.45
7.412,-0.47
7.414,-0.35
7.416,-0.445
7.418,-0.445
7.42,-0.54
7.422,-0.5
7.424,-0.43
7.426,-0.435
7.428,-0.445
7.43,-0.355
7.432,-0.335
7.434,-0.455
7.436,-0.505
7.438,-0.55
7.44,-0.5
7.442,-0.555
7.444,-0.545
7.446,-0.365
7.448,-0.37
7.45,-0.23
7.452,-0.24
7.454,-0.355
7.456,-0.425
7.458,-0.53
7.46,-0.57
7.462,-0.52
7.464,-0.39
7.466,-0.37
7.468,-0.4
7.47,-0.37
7.472,-0.36
7.474,-0.43
7.476,-0.39
7.478,-0.425
7.48,-0.505
7.482,-0.5
7.484,-0.45
7.486,-0.425
7.488,-0.39
7.49,-0.33
7.492,-0.24
7.494,-0.265
7.496,-0.32
7.498,-0.4
7.5,-0.4
7.502,-0.425
7.504,-0.4
7.506,-0.215
7.508,-0.205
7.51,-0.14
7.512,-0.235
7.514,-0.3
7.516,-0.45
7.518,-0.225
7.52,-0.295
7.522,-0.325
7.524,-0.24
7.526,-0.15
7.528,-0.035
7.53,-0.115
7.532,-0.21
7.534,-0.28
7.536,-0.35
7.538,-0.315
7.54,-0.365
7.542,-0.41
7.544,-0.13
7.546,-0.11
7.548,-0.09
7.55,-0.1
7.552,-0.13
7.554,-0.135
7.556,-0.18
7.558,-0.35
7.56,-0.37
7.562,-0.31
7.564,-0.125
7.566,-0.145
7.568,-0.155
7.57,-0.105
7.572,-0.09
7.574,-0.215
7.576,-0.28
7.578,-0.37
7.58,-0.445
7.582,-0.295
7.584,-0.32
7.586,-0.22
7.588,-0.14
7.59,-0.115
7.592,-0.195
7.594,-0.285
7.596,-0.345
7.598,-0.455
7.6,-0.47
7.602,-0.335
7.604,-0.315
7.606,-0.33
7.608,-0.235
7.61,-0.25
7.612,-0.245
7.614,-0.35
7.616,-0.475
7.618,-0.61
7.62,-0.535
7.622,-0.505
7.624,-0.42
7.626,-0.32
7.628,-0.175
7.63,-0.24
7.632,-0.315
7.634,-0.39
7.636,-0.35
7.638,-0.425
7.64,-0.525
7.642,-0.415
7.644,-0.45
7.646,-0.395
7.648,-0.32
7.65,-0.33
7.652,-0.39
7.654,-0.375
7.656,-0.36
7.658,-0.45
7.66,-0.455
7.662,-0.38
7.664,-0.32
7.666,-0.25
7.668,-0.305
7.67,-0.395
7.672,-0.415
7.674,-0.36
7.676,-0.435
7.678,-0.575
7.68,-0.54
7.682,-0.47
7.684,-0.365
7.686,-0.405
7.688,-0.295
7.69,-0.285
7.692,-0.315
7.694,-0.43
7.696,-0.46
7.698,-0.555
7.7,-0.515
7.702,-0.405
7.704,-0.335
7.706,-0.35
7.708,-0.175
7.71,-0.315
7.712,-0.39
7.714,-0.38
7.716,-0.295
7.718,-0.345
7.72,-0.37
7.722,-0.395
7.724,-0.29
7.726,-0.265
7.728,-0.155
7.73,-0.115
7.732,-0.28
7.734,-0.4
7.736,-0.25
7.738,-0.41
7.74,-0.405
7.742,-0.38
7.744,-0.275
7.746,-0.25
7.748,-0.245
7.75,-0.27
7.752,-0.32
7.754,-0.44
7.756,-0.395
7.758,-0.425
7.76,-0.465
7.762,-0.425
7.764,-0.34
7.766,-0.33
7.768,-0.31
7.77,-0.24
7.772,-0.355
7.774,-0.465
7.776,-0.505
7.778,-0.505
7.78,-0.49
7.782,-0.525
7.784,-0.415
7.786,-0.41
7.788,-0.25
7.79,-0.145
7.792,-0.245
7.794,-0.405
7.796,-0.575
7.798,-0.45
7.8,-0.44
7.802,-0.515
7.804,-0.355
7.806,-0.28
7.808,-0.215
7.81,-0.315
7.812,-0.355
7.814,-0.4
7.816,-0.485
7.818,-0.5
7.82,-0.445
7.822,-0.38
7.824,-0.395
7.826,-0.39
7.828,-0.36
7.83,-0.355
7.832,-0.32
7.834,-0.43
7.836,-0.475
7.838,-0.52
7.84,-0.535
7.842,-0.465
7.844,-0.455
7.846,-0.29
7.848,-0.235
7.85,-0.37
7.852,-0.395
7.854,-0.475
7.856,-0.54
7.858,-0.54
7.86,-0.45
7.862,-0.435
7.864,-0.38
7.866,-0.305
7.868,-0.315
7.87,-0.39
7.872,-0.485
7.874,-0.41
7.876,-0.46
7.878,-0.4
7.88,-0.37
7.882,-0.33
7.884,-0.225
7.886,-0.12
7.888,-0.135
7.89,-0.115
7.892,-0.165
7.894,-0.18
7.896,-0.14
7.898,-0.01
7.9,0.02
7.902,0.145
7.904,0.295
7.906,0.35
7.908,0.23
7.91,0.115
7.912,-0.015
7.914,-0.015
7.916,-0.12
7.918,-0.165
7.92,-0.12
7.922,-0.085
7.924,0.06
7.926,-0.1
7.928,-0.215
7.93,-0.205
7.932,-0.295
7.934,-0.44
7.936,-0.42
7.938,-0.435
7.94,-0.375
7.942,-0.26
7.944,-0.195
7.946,-0.11
7.948,-0.225
7.95,-0.305
7.952,-0.425
7.954,-0.375
7.956,-0.49
7.958,-0.395
7.96,-0.415
7.962,-0.36
7.964,-0.26
7.966,-0.28
7.968,-0.34
7.97,-0.31
7.972,-0.4
7.974,-0.41
7.976,-0.37
7.978,-0.395
7.98,-0.375
7.982,-0.4
7.984,-0.435
7.986,-0.265
7.988,-0.225
7.99,-0.26
7.992,-0.4
7.994,-0.38
7.996,-0.465
7.998,-0.48
8,-0.455
8.002,-0.365
8.004,-0.31
8.006,-0.125
8.008,-0.11
8.01,-0.215
8.012,-0.235
8.014,-0.32
8.016,-0.445
8.018,-0.39
8.02,-0.25
8.022,-0.265
8.024,-0.375
8.026,-0.075
8.028,-0.145
8.03,-0.235
8.032,-0.25
8.034,-0.335
8.036,-0.355
8.038,-0.365
8.04,-0.34
8.042,-0.31
8.044,-0.31
8.046,-0.245
8.048,-0.235
8.05,-0.27
8.052,-0.41
8.054,-0.465
8.056,-0.485
8.058,-0.335
8.06,-0.25
8.062,-0.245
8.064,-0.21
8.066,-0.205
8.068,-0.265
8.07,-0.27
8.072,-0.355
8.074,-0.515
8.076,-0.44
8.078,-0.37
8.08,-0.21
8.082,-0.235
8.084,-0.28
8.086,-0.185
8.088,-0.195
8.09,-0.26
8.092,-0.32
8.094,-0.365
8.096,-0.37
8.098,-0.275
8.1,-0.19
8.102,-0.13
8.104,-0.075
8.106,-0.095
8.108,-0.15
8.11,-0.15
8.112,-0.19
8.114,-0.215
8.116,-0.2
8.118,-0.275
8.12,-0.235
8.122,-0.235
8.124,-0.125
8.126,-0.05
8.128,-0.13
8.13,-0.155
8.132,-0.195
8.134,-0.19
8.136,-0.245
8.138,-0.17
8.14,-0.12
8.142,-0.05
8.144,-0.015
8.146,0.005
8.148,-0.04
8.15,-0.195
8.152,-0.095
8.154,-0.19
8.156,-0.295
8.158,-0.24
8.16,-0.125
8.162,-0.09
8.164,0
8.166,-0.005
8.168,0.015
8.17,-0.06
8.172,-0.01
8.174,-0.085
8.176,-0.135
8.178,-0.05
8.18,-0.04
8.182,-0.075
8.184,0
8.186,0.01
8.188,-0.09
8.19,-0.095
8.192,-0.135
8.194,-0.19
8.196,-0.225
8.198,-0.12
8.2,-0.15
8.202,-0.125
8.204,-0.105
8.206,-0.09
8.208,-0.05
8.21,-0.18
8.212,-0.215
8.214,-0.295
8.216,-0.32
8.218,-0.29
8.22,-0.215
8.222,-0.21
8.224,-0.07
8.226,-0.06
8.228,-0.165
8.23,-0.2
8.232,-0.28
8.234,-0.47
8.236,-0.52
8.238,-0.31
8.24,-0.365
8.242,-0.275
8.244,-0.09
8.246,-0.07
8.248,-0.13
8.25,-0.245
8.252,-0.275
8.254,-0.37
8.256,-0.29
8.258,-0.32
8.26,-0.205
8.262,-0.14
8.264,-0.09
8.266,-0.155
8.268,-0.335
8.27,-0.405
8.272,-0.31
8.274,-0.425
8.276,-0.355
8.278,-0.33
8.28,-0.27
8.282,-0.28
8.284,-0.155
8.286,-0.215
8.288,-0.3
8.29,-0.29
8.292,-0.31
8.294,-0.425
8.296,-0.475
8.298,-0.38
8.3,-0.32
8.302,-0.16
8.304,-0.07
8.306,-0.115
8.308,-0.08
8.31,-0.19
8.312,-0.26
8.314,-0.34
8.316,-0.33
8.318,-0.3
8.32,-0.23
8.322,-0.25
8.324,-0.125
8.326,-0.17
8.328,-0.155
8.33,-0.245
8.332,-0.285
8.334,-0.345
8.336,-0.325
8.338,-0.335
8.34,-0.27
8.342,-0.2
8.344,-0.16
8.346,-0.075
8.348,-0.235
8.35,-0.12
8.352,-0.245
8.354,-0.28
8.356,-0.335
8.358,-0.285
8.36,-0.2
8.362,-0.125
8.364,-0.185
8.366,-0.26
8.368,-0.345
8.37,-0.43
8.372,-0.375
8.374,-0.205
8.376,-0.27
8.378,-0.265
8.38,-0.17
8.382,-0.155
8.384,-0.155
8.386,-0.185
8.388,-0.22
8.39,-0.27
8.392,-0.375
8.394,-0.45
8.396,-0.445
8.398,-0.4
8.4,-0.33
8.402,-0.39
8.404,-0.345
8.406,-0.24
8.408,-0.3
8.41,-0.37
8.412,-0.37
8.414,-0.355
8.416,-0.38
8.418,-0.38
8.42,-0.29
8.422,-0.255
8.424,-0.29
8.426,-0.375
8.428,-0.38
8.43,-0.33
8.432,-0.35
8.434,-0.345
8.436,-0.37
8.438,-0.385
8.44,-0.16
8.442,-0.16
8.444,-0.22
8.446,-0.16
8.448,-0.24
8.45,-0.395
8.452,-0.47
8.454,-0.455
8.456,-0.42
8.458,-0.475
8.46,-0.245
8.462,-0.22
8.464,-0.2
8.466,-0.16
8.468,-0.285
8.47,-0.38
8.472,-0.5
8.474,-0.34
8.476,-0.29
8.478,-0.325
8.48,-0.29
8.482,-0.105
8.484,-0.215
8.486,-0.315
8.488,-0.37
8.49,-0.38
8.492,-0.495
8.494,-0.41
8.496,-0.215
8.498,-0.22
8.5,-0.17
8.502,0.01
8.504,0.1
8.506,0.085
8.508,0.105
8.51,0.16
8.512,0.035
8.514,0.15
8.516,0.25
8.518,0.33
8.52,0.245
8.522,0.17
8.524,0.21
8.526,0.215
8.528,-0.01
8.53,-0.105
8.532,-0.18
8.534,-0.17
8.536,-0.145
8.538,-0.075
8.54,-0.075
8.542,-0.135
8.544,-0.305
8.546,-0.31
8.548,-0.36
8.55,-0.35
8.552,-0.315
8.554,-0.28
8.556,-0.29
8.558,-0.26
8.56,-0.175
8.562,-0.16
8.564,-0.22
8.566,-0.285
8.568,-0.34
8.57,-0.365
8.572,-0.435
8.574,-0.485
8.576,-0.38
8.578,-0.185
8.58,-0.235
8.582,-0.21
8.584,-0.245
8.586,-0.27
8.588,-0.31
8.59,-0.32
8.592,-0.35
8.594,-0.325
8.596,-0.3
8.598,-0.23
8.6,-0.285
8.602,-0.215
8.604,-0.13
8.606,-0.23
8.608,-0.325
8.61,-0.335
8.612,-0.42
8.614,-0.385
8.616,-0.375
8.618,-0.34
8.62,-0.215
8.622,-0.07
8.624,-0.26
8.626,-0.295
8.628,-0.31
8.63,-0.385
8.632,-0.395
8.634,-0.37
8.636,-0.295
8.638,-0.185
8.64,-0.125
8.642,-0.095
8.644,-0.19
8.646,-0.32
8.648,-0.29
8.65,-0.305
8.652,-0.33
8.654,-0.32
8.656,-0.28
8.658,-0.24
8.66,-0.21
8.662,-0.17
8.664,-0.145
8.666,-0.17
8.668,-0.305
8.67,-0.345
8.672,-0.355
8.674,-0.28
8.676,-0.325
8.678,-0.325
8.68,-0.235
8.682,-0.225
8.684,-0.19
8.686,-0.2
8.688,-0.32
8.69,-0.445
8.692,-0.28
8.694,-0.25
8.696,-0.225
8.698,-0.235
8.7,-0.065
8.702,-0.21
8.704,-0.15
8.706,-0.08
8.708,-0.165
8.71,-0.335
8.712,-0.33
8.714,-0.29
8.716,-0.245
8.718,-0.235
8.72,-0.065
8.722,-0.095
8.724,-0.085
8.726,-0.09
8.728,-0.28
8.73,-0.265
8.732,-0.23
8.734,-0.21
8.736,-0.145
8.738,-0.055
8.74,0.075
8.742,-0.025
8.744,-0.01
8.746,-0.145
8.748,-0.15
8.75,-0.245
8.752,-0.135
8.754,-0.115
8.756,-0.085
8.758,-0.045
8.76,0.02
8.762,0.085
8.764,-0.005
8.766,-0.1
8.768,-0.145
8.77,-0.175
8.772,-0.19
8.774,-0.08
8.776,-0.09
8.778,-0.055
8.78,0.04
8.782,0.185
8.784,0.065
8.786,-0.05
8.788,-0.03
8.79,-0.105
8.792,-0.185
8.794,-0.195
8.796,-0.04
8.798,-0.235
8.8,-0.055
8.802,0.065
8.804,0.025
8.806,-0.13
8.808,-0.025
8.81,-0.09
8.812,-0.13
8.814,-0.15
8.816,-0.17
8.818,-0.125
8.82,-0.045
8.822,-0.1
8.824,-0.24
8.826,-0.255
8.828,-0.26
8.83,-0.315
8.832,-0.225
8.834,-0.14
8.836,-0.175
8.838,-0.215
8.84,-0.015
8.842,-0.065
8.844,-0.13
8.846,-0.29
8.848,-0.445
8.85,-0.38
8.852,-0.245
8.854,-0.28
8.856,-0.185
8.858,-0.29
8.86,-0.285
8.862,-0.13
8.864,-0.125
8.866,-0.285
8.868,-0.32
8.87,-0.35
8.872,-0.335
8.874,-0.295
8.876,-0.255
8.878,-0.235
8.88,-0.205
8.882,-0.225
8.884,-0.27
8.886,-0.28
8.888,-0.305
8.89,-0.38
8.892,-0.4
8.894,-0.22
8.896,-0.115
8.898,-0.095
8.9,-0.135
8.902,-0.175
8.904,-0.215
8.906,-0.32
8.908,-0.275
8.91,-0.34
8.912,-0.325
8.914,-0.25
8.916,-0.225
8.918,-0.175
8.92,-0.09
8.922,-0.115
8.924,-0.23
8.926,-0.32
8.928,-0.43
8.93,-0.44
8.932,-0.415
8.934,-0.095
8.936,-0.08
8.938,-0.045
8.94,-0.055
8.942,-0.05
8.944,-0.175
8.946,-0.28
8.948,-0.27
8.95,-0.285
8.952,-0.185
8.954,-0.18
8.956,-0.13
8.958,-0.06
8.96,-0.145
8.962,-0.145
8.964,-0.175
8.966,-0.225
8.968,-0.27
8.97,-0.26
8.972,-0.215
8.974,-0.22
8.976,-0.165
8.978,-0.135
8.98,-0.165
8.982,-0.155
8.984,-0.275
8.986,-0.295
8.988,-0.34
8.99,-0.34
8.992,-0.275
8.994,-0.16
8.996,-0.225
8.998,-0.135
9,-0.18
9.002,-0.19
9.004,-0.345
9.006,-0.295
9.008,-0.315
9.01,-0.3
9.012,-0.32
9.014,-0.245
9.016,-0.215
9.018,-0.24
9.02,-0.125
9.022,-0.18
9.024,-0.25
9.026,-0.275
9.028,-0.42
9.03,-0.465
9.032,-0.37
9.034,-0.27
9.036,-0.255
9.038,-0.13
9.04,-0.2
9.042,-0.265
9.044,-0.3
9.046,-0.32
9.048,-0.38
9.05,-0.405
9.052,-0.3
9.054,-0.235
9.056,-0.18
9.058,-0.125
9.06,-0.05
9.062,-0.2
9.064,-0.295
9.066,-0.335
9.068,-0.405
9.07,-0.345
9.072,-0.405
9.074,-0.32
9.076,-0.275
9.078,-0.215
9.08,-0.195
9.082,-0.225
9.084,-0.28
9.086,-0.34
9.088,-0.43
9.09,-0.455
9.092,-0.325
9.094,-0.14
9.096,-0.105
9.098,-0.145
9.1,-0.255
9.102,-0.15
9.104,-0.215
9.106,-0.245
9.108,-0.26
9.11,-0.135
9.112,0.02
9.114,0.165
9.116,0.22
9.118,0.355
9.12,0.435
9.122,0.45
9.124,0.325
9.126,0.285
9.128,0.17
9.13,0.11
9.132,0.095
9.134,0.09
9.136,0.045
9.138,0.11
9.14,0.12
9.142,0.11
9.144,-0.08
9.146,-0.135
9.148,-0.23
9.15,-0.385
9.152,-0.39
9.154,-0.355
9.156,-0.315
9.158,-0.215
9.16,-0.16
9.162,-0.22
9.164,-0.315
9.166,-0.35
9.168,-0.38
9.17,-0.36
9.172,-0.39
9.174,-0.21
9.176,-0.21
9.178,-0.175
9.18,-0.18
9.182,-0.185
9.184,-0.23
9.186,-0.205
9.188,-0.32
9.19,-0.29
9.192,-0.235
9.194,-0.2
9.196,-0.195
9.198,-0.155
9.2,-0.175
9.202,-0.32
9.204,-0.23
9.206,-0.315
9.208,-0.365
9.21,-0.33
9.212,-0.315
9.214,-0.18
9.216,-0.15
9.218,-0.17
9.22,-0.19
9.222,-0.25
9.224,-0.35
9.226,-0.425
9.228,-0.33
9.23,-0.37
9.232,-0.35
9.234,-0.245
9.236,-0.09
9.238,-0.115
9.24,-0.175
9.242,-0.18
9.244,-0.31
9.246,-0.31
9.248,-0.325
9.25,-0.33
9.252,-0.345
9.254,-0.295
9.256,-0.255
9.258,-0.04
9.26,-0.1
9.262,-0.195
9.264,-0.255
9.266,-0.295
9.268,-0.27
9.27,-0.3
9.272,-0.295
9.274,-0.25
9.276,-0.165
9.278,-0.025
9.28,-0.065
9.282,-0.145
9.284,-0.14
9.286,-0.24
9.288,-0.275
9.29,-0.285
9.292,-0.25
9.294,-0.22
9.296,-0.14
9.298,0.005
9.3,-0.11
9.302,-0.215
9.304,-0.18
9.306,-0.3
9.308,-0.15
9.31,-0.205
9.312,-0.215
9.314,-0.225
9.316,-0.09
9.318,-0.075
9.32,-0.07
9.322,-0.135
9.324,-0.125
9.326,-0.295
9.328,-0.28
9.33,-0.12
9.332,-0.025
9.334,-0.045
9.336,-0.08
9.338,-0.025
9.34,-0.035
9.342,-0.07
9.344,-0.075
9.346,-0.25
9.348,-0.155
9.35,0.015
9.352,0.01
9.354,-0.025
9.356,-0.01
9.358,-0.01
9.36,0.09
9.362,-0.1
9.364,-0.13
9.366,-0.185
9.368,-0.015
9.37,-0.065
9.372,-0.08
9.374,0.06
9.376,0.115
9.378,0
9.38,0.09
9.382,0
9.384,0.02
9.386,-0.1
9.388,-0.12
9.39,-0.1
9.392,0.055
9.394,0.09
9.396,0.07
9.398,0.035
9.4,0.05
9.402,0.02
9.404,-0.085
9.406,-0.195
9.408,-0.22
9.41,-0.11
9.412,-0.03
9.414,-0.03
9.416,0.005
9.418,-0.075
9.42,-0.11
9.422,-0.095
9.424,-0.045
9.426,-0.195
9.428,-0.245
9.43,-0.315
9.432,-0.085
9.434,-0.04
9.436,-0.015
9.438,0.03
9.44,-0.1
9.442,-0.285
9.444,-0.33
9.446,-0.375
9.448,-0.305
9.45,-0.2
9.452,-0.225
9.454,-0.11
9.456,-0.065
9.458,-0.075
9.46,-0.12
9.462,-0.265
9.464,-0.325
9.466,-0.395
9.468,-0.3
9.47,-0.19
9.472,-0.135
9.474,-0.165
9.476,-0.04
9.478,-0.21
9.48,-0.255
9.482,-0.175
9.484,-0.345
9.486,-0.37
9.488,-0.255
9.49,-0.3
9.492,-0.21
9.494,-0.165
9.496,-0.065
9.498,-0.11
9.5,-0.215
9.502,-0.255
9.504,-0.39
9.506,-0.31
9.508,-0.3
9.51,-0.285
9.512,-0.16
9.514,-0.1
9.516,-0.12
9.518,-0.175
9.52,-0.225
9.522,-0.275
9.524,-0.36
9.526,-0.36
9.528,-0.35
9.53,-0.21
9.532,-0.16
9.534,-0.15
9.536,-0.245
9.538,-0.08
9.54,-0.105
9.542,-0.275
9.544,-0.405
9.546,-0.375
9.548,-0.235
9.55,-0.18
9.552,-0.26
9.554,-0.2
9.556,-0.105
9.558,-0.075
9.56,-0.095
9.562,-0.165
9.564,-0.225
9.566,-0.28
9.568,-0.29
9.57,-0.27
9.572,-0.255
9.574,-0.07
9.576,-0.015
9.578,-0.06
9.58,-0.175
9.582,-0.115
9.584,-0.235
9.586,-0.255
9.588,-0.325
9.59,-0.26
9.592,-0.155
9.594,-0.07
9.596,-0.105
9.598,-0.13
9.6,-0.15
9.602,-0.155
9.604,-0.24
9.606,-0.175
9.608,-0.195
9.61,-0.205
9.612,-0.245
9.614,-0.11
9.616,-0.03
9.618,-0.09
9.62,-0.225
9.622,-0.245
9.624,-0.32
9.626,-0.275
9.628,-0.34
9.63,-0.305
9.632,-0.33
9.634,-0.11
9.636,-0.12
9.638,-0.14
9.64,-0.335
9.642,-0.415
9.644,-0.41
9.646,-0.39
9.648,-0.34
9.65,-0.205
9.652,-0.09
9.654,-0.075
9.656,-0.17
9.658,-0.255
9.66,-0.26
9.662,-0.225
9.664,-0.305
9.666,-0.285
9.668,-0.31
9.67,-0.29
9.672,-0.22
9.674,-0.105
9.676,-0.055
9.678,-0.185
9.68,-0.28
9.682,-0.3
9.684,-0.375
9.686,-0.315
9.688,-0.245
9.69,-0.22
9.692,-0.125
9.694,-0.115
9.696,-0.19
9.698,-0.155
9.7,-0.28
9.702,-0.23
9.704,-0.35
9.706,-0.43
9.708,-0.265
9.71,-0.2
9.712,-0.125
9.714,-0.115
9.716,-0.15
9.718,-0.275
9.72,-0.285
9.722,-0.375
9.724,-0.525
9.726,-0.36
9.728,-0.135
9.73,0.06
9.732,0.07
9.734,0.115
9.736,0.095
9.738,0.185
9.74,0.265
9.742,0.34
9.744,0.32
9.746,0.255
9.748,0.265
9.75,0.315
9.752,0.305
9.754,0.27
9.756,0.215
9.758,0.105
9.76,0.005
9.762,0.04
9.764,0.065
9.766,0.02
9.768,-0.05
9.77,-0.07
9.772,-0.07
9.774,-0.135
9.776,-0.215
9.778,-0.245
9.78,-0.15
9.782,-0.235
9.784,-0.23
9.786,-0.33
9.788,-0.325
9.79,-0.15
9.792,-0.105
9.794,-0.125
9.796,-0.17
9.798,-0.265
9.8,-0.3
9.802,-0.355
9.804,-0.355
9.806,-0.38
9.808,-0.345
9.81,-0.135
9.812,-0.035
9.814,-0.03
9.816,-0.02
9.818,-0.13
9.82,-0.245
9.822,-0.405
9.824,-0.42
9.826,-0.39
9.828,-0.28
9.83,-0.195
9.832,0
9.834,-0.04
9.836,-0.105
9.838,-0.19
9.84,-0.225
9.842,-0.305
9.844,-0.285
9.846,-0.25
9.848,-0.285
9.85,-0.235
9.852,-0.15
9.854,-0.135
9.856,-0.17
9.858,-0.115
9.86,-0.21
9.862,-0.23
9.864,-0.285
9.866,-0.255
9.868,-0.195
9.87,-0.195
9.872,-0.115
9.874,-0.175
9.876,-0.405
9.878,-0.24
9.88,-0.215
9.882,-0.28
9.884,-0.285
9.886,-0.22
9.888,-0.185
9.89,-0.315
9.892,-0.12
9.894,-0.11
9.896,-0.085
9.898,-0.155
9.9,-0.255
9.902,-0.355
9.904,-0.32
9.906,-0.11
9.908,-0.085
9.91,-0.185
9.912,-0.025
9.914,0.03
9.916,-0.03
9.918,-0.09
9.92,-0.13
9.922,-0.24
9.924,-0.205
9.926,-0.185
9.928,-0.11
9.93,-0.06
9.932,-0.01
9.934,-0.025
9.936,-0.075
9.938,-0.08
9.94,-0.16
9.942,-0.32
9.944,-0.25
9.946,-0.16
9.948,-0.075
9.95,-0.105
9.952,0.015
9.954,0.025
9.956,0
9.958,-0.11
9.96,-0.155
9.962,-0.27
9.964,-0.245
9.966,-0.24
9.968,-0.045
9.97,-0.005
9.972,-0.03
9.974,0
9.976,0
9.978,-0.06
9.98,-0.015
9.982,-0.06
9.984,-0.025
9.986,0.11
9.988,0.055
9.99,0.085
9.992,0.215
9.994,0.15
9.996,0.045
9.998,-0.005
