0,0.055
0.002,0.05
0.004,0.205
0.006,0.27
0.008,0.285
0.01,0.275
0.012,0.165
0.014,0.1
0.016,-0.02
0.018,-0.06
0.02,-0.03
0.022,0.095
0.024,0.195
0.026,0.305
0.028,0.285
0.03,0.24
0.032,0.16
0.034,0.08
0.036,-0.03
0.038,-0.035
0.04,-0.01
0.042,0.07
0.044,0.1
0.046,0.165
0.048,0.17
0.05,0.165
0.052,0.195
0.054,0.125
0.056,0.01
0.058,0.02
0.06,-0.025
0.062,0.075
0.064,0.17
0.066,0.27
0.068,0.24
0.07,0.175
0.072,0.085
0.074,0.085
0.076,-0.02
0.078,-0.025
0.08,0.02
0.082,0.075
0.084,0.07
0.086,0.215
0.088,0.255
0.09,0.205
0.092,0.105
0.094,0.08
0.096,-0.035
0.098,0.005
0.1,0.045
0.102,0.115
0.104,0.125
0.106,0.215
0.108,0.22
0.11,0.21
0.112,0.115
0.114,0.065
0.116,-0.03
0.118,-0.02
0.12,0.075
0.122,0.2
0.124,0.185
0.126,0.22
0.128,0.265
0.13,0.25
0.132,0.135
0.134,0.035
0.136,-0.03
0.138,0.04
0.14,0.085
0.142,0.175
0.144,0.215
0.146,0.325
0.148,0.33
0.15,0.27
0.152,0.16
0.154,0.18
0.156,0.055
0.158,0.065
0.16,0.135
0.162,0.235
0.164,0.235
0.166,0.28
0.168,0.285
0.17,0.21
0.172,0.13
0.174,0.14
0.176,0.06
0.178,0.06
0.18,0.155
0.182,0.215
0.184,0.215
0.186,0.32
0.188,0.315
0.19,0.23
0.192,0.125
0.194,0.19
0.196,0.07
0.198,0.08
0.2,0.12
0.202,0.185
0.204,0.22
0.206,0.36
0.208,0.395
0.21,0.37
0.212,0.255
0.214,0.215
0.216,0.19
0.218,0.16
0.22,0.18
0.222,0.26
0.224,0.305
0.226,0.445
0.228,0.42
0.23,0.35
0.232,0.29
0.234,0.25
0.236,0.205
0.238,0.225
0.24,0.295
0.242,0.38
0.244,0.45
0.246,0.51
0.248,0.5
0.25,0.37
0.252,0.245
0.254,0.185
0.256,0.175
0.258,0.195
0.26,0.265
0.262,0.33
0.264,0.44
0.266,0.485
0.268,0.435
0.27,0.37
0.272,0.33
0.274,0.215
0.276,0.18
0.278,0.145
0.28,0.3
0.282,0.41
0.284,0.425
0.286,0.42
0.288,0.405
0.29,0.32
0.292,0.195
0.294,0.1
0.296,0.09
0.298,0.16
0.3,0.2
0.302,0.28
0.304,0.345
0.306,0.36
0.308,0.35
0.31,0.26
0.312,0.19
0.314,0.085
0.316,0.08
0.318,0.085
0.32,0.195
0.322,0.225
0.324,0.325
0.326,0.31
0.328,0.305
0.33,0.185
0.332,0.12
0.334,-0.03
0.336,0.01
0.338,0.08
0.34,0.135
0.342,0.155
0.344,0.24
0.346,0.225
0.348,0.22
0.35,0.13
0.352,0.08
0.354,0.04
0.356,0.03
0.358,0.06
0.36,0.18
0.362,0.215
0.364,0.28
0.366,0.29
0.368,0.225
0.37,0.115
0.372,0.105
0.374,-0.015
0.376,-0.025
0.378,0.015
0.38,0.11
0.382,0.185
0.384,0.265
0.386,0.255
0.388,0.205
0.39,0.15
0.392,0.135
0.394,0.05
0.396,0.05
0.398,0.065
0.4,0.105
0.402,0.12
0.404,0.25
0.406,0.22
0.408,0.19
0.41,0.11
0.412,0.055
0.414,-0.01
0.416,0.01
0.418,0.035
0.42,0.125
0.422,0.155
0.424,0.235
0.426,0.23
0.428,0.205
0.43,0.08
0.432,0.06
0.434,-0.025
0.436,-0.02
0.438,0.085
0.44,0.19
0.442,0.19
0.444,0.255
0.446,0.245
0.448,0.165
0.45,0.125
0.452,0.145
0.454,0.025
0.456,-0.02
0.458,0.035
0.46,0.16
0.462,0.13
0.464,0.265
0.466,0.28
0.468,0.205
0.47,0.09
0.472,0.075
0.474,0.015
0.476,0.015
0.478,0.095
0.48,0.19
0.482,0.195
0.484,0.255
0.486,0.235
0.488,0.14
0.49,0.08
0.492,0.14
0.494,0.03
0.496,0.015
0.498,0.11
0.5,0.2
0.502,0.18
0.504,0.295
0.506,0.255
0.508,0.165
0.51,0.055
0.512,0.02
0.514,0.02
0.516,0.015
0.518,0.05
0.52,0.17
0.522,0.205
0.524,0.26
0.526,0.23
0.528,0.18
0.53,0.085
0.532,0.045
0.534,-0.01
0.536,-0.01
0.538,0.07
0.54,0.115
0.542,0.19
0.544,0.265
0.546,0.26
0.548,0.165
0.55,0.095
0.552,0.01
0.554,0
0.556,0.015
0.558,0.135
0.56,0.205
0.562,0.23
0.564,0.21
0.566,0.235
0.568,0.15
0.57,0.105
0.572,0.055
0.574,0.02
0.576,0.02
0.578,0.105
0.58,0.17
0.582,0.235
0.584,0.195
0.586,0.175
0.588,0.08
0.59,0.035
0.592,0.025
0.594,0.06
0.596,0.075
0.598,0.145
0.6,0.17
0.602,0.235
0.604,0.27
0.606,0.25
0.608,0.13
0.61,0.06
0.612,-0.04
0.614,-0.03
0.616,0.04
0.618,0.125
0.62,0.165
0.622,0.27
0.624,0.255
0.626,0.19
0.628,0.125
0.63,0.1
0.632,0
0.634,-0.025
0.636,0.03
0.638,0.145
0.64,0.175
0.642,0.25
0.644,0.24
0.646,0.21
0.648,0.135
0.65,0.1
0.652,-0.025
0.654,-0.03
0.656,0.005
0.658,0.11
0.66,0.135
0.662,0.23
0.664,0.23
0.666,0.23
0.668,0.11
0.67,0.055
0.672,-0.035
0.674,-0.03
0.676,0.06
0.678,0.115
0.68,0.12
0.682,0.22
0.684,0.22
0.686,0.135
0.688,0.1
0.69,0.14
0.692,0.03
0.694,-0.03
0.696,0.02
0.698,0.12
0.7,0.15
0.702,0.225
0.704,0.25
0.706,0.18
0.708,0.105
0.71,0.085
0.712,-0.015
0.714,0.04
0.716,0.11
0.718,0.2
0.72,0.21
0.722,0.225
0.724,0.215
0.726,0.16
0.728,0.035
0.73,0.025
0.732,-0.05
0.734,-0.015
0.736,0.04
0.738,0.16
0.74,0.14
0.742,0.24
0.744,0.245
0.746,0.18
0.748,0.065
0.75,0.055
0.752,-0.01
0.754,-0.02
0.756,0.06
0.758,0.145
0.76,0.15
0.762,0.215
0.764,0.185
0.766,0.125
0.768,0.095
0.77,0.065
0.772,0.015
0.774,0.025
0.776,0.07
0.778,0.135
0.78,0.185
0.782,0.235
0.784,0.255
0.786,0.17
0.788,0.07
0.79,0.065
0.792,0.015
0.794,0.025
0.796,0.115
0.798,0.175
0.8,0.23
0.802,0.34
0.804,0.33
0.806,0.165
0.808,0.105
0.81,0.04
0.812,-0.04
0.814,-0.025
0.816,0.08
0.818,0.265
0.82,0.305
0.822,0.33
0.824,0.34
0.826,0.205
0.828,0.11
0.83,0.055
0.832,0.035
0.834,0.06
0.836,0.145
0.838,0.21
0.84,0.24
0.842,0.255
0.844,0.225
0.846,0.125
0.848,0.05
0.85,-0.005
0.852,0.02
0.854,0.015
0.856,0.095
0.858,0.155
0.86,0.225
0.862,0.225
0.864,0.205
0.866,0.11
0.868,0.07
0.87,-0.015
0.872,-0.01
0.874,0.005
0.876,0.1
0.878,0.16
0.88,0.215
0.882,0.25
0.884,0.2
0.886,0.095
0.888,0.06
0.89,-0.035
0.892,-0.06
0.894,-0.045
0.896,0.09
0.898,0.065
0.9,0.28
0.902,0.235
0.904,0.235
0.906,0.18
0.908,0.185
0.91,0.155
0.912,0.265
0.914,0.355
0.916,0.54
0.918,0.675
0.92,0.84
0.922,0.89
0.924,0.88
0.926,0.705
0.928,0.6
0.93,0.385
0.932,0.295
0.934,0.31
0.936,0.34
0.938,0.205
0.94,0.26
0.942,0.28
0.944,0.265
0.946,0.18
0.948,0.17
0.95,0.03
0.952,0.02
0.954,0.055
0.956,0.14
0.958,0.17
0.96,0.26
0.962,0.26
0.964,0.21
0.966,0.07
0.968,0.04
0.97,-0.065
0.972,-0.1
0.974,-0.015
0.976,0.09
0.978,0.12
0.98,0.215
0.982,0.21
0.984,0.185
0.986,0.095
0.988,0.075
0.99,-0.015
0.992,0.005
0.994,0.065
0.996,0.13
0.998,0.095
1,0.195
1.002,0.18
1.004,0.135
1.006,0.065
1.008,0.04
1.01,-0.03
1.012,-0.02
1.014,0.045
1.016,0.1
1.018,0.115
1.02,0.225
1.022,0.23
1.024,0.125
1.026,0.035
1.028,0.045
1.03,-0.065
1.032,-0.045
1.034,0.05
1.036,0.125
1.038,0.095
1.04,0.2
1.042,0.155
1.044,0.07
1.046,0.07
1.048,0.045
1.05,-0.03
1.052,-0.02
1.054,0.04
1.056,0.135
1.058,0.15
1.06,0.24
1.062,0.24
1.064,0.16
1.066,0.105
1.068,0.06
1.07,-0.03
1.072,-0.085
1.074,0.01
1.076,0.11
1.078,0.15
1.08,0.21
1.082,0.22
1.084,0.155
1.086,0.085
1.088,0.01
1.09,-0.035
1.092,-0.02
1.094,0.065
1.096,0.15
1.098,0.22
1.1,0.29
1.102,0.295
1.104,0.175
1.106,0.075
1.108,-0.035
1.11,-0.04
1.112,0.015
1.114,0.09
1.116,0.145
1.118,0.225
1.12,0.26
1.122,0.22
1.124,0.15
1.126,0.085
1.128,-0.02
1.13,-0.02
1.132,-0.015
1.134,0.06
1.136,0.195
1.138,0.295
1.14,0.32
1.142,0.265
1.144,0.175
1.146,0.12
1.148,0.015
1.15,0.04
1.152,-0.04
1.154,0.14
1.156,0.25
1.158,0.315
1.16,0.285
1.162,0.25
1.164,0.245
1.166,0.2
1.168,0.105
1.17,0.12
1.172,0.175
1.174,0.28
1.176,0.295
1.178,0.385
1.18,0.355
1.182,0.31
1.184,0.245
1.186,0.175
1.188,0.05
1.19,0.08
1.192,0.145
1.194,0.255
1.196,0.27
1.198,0.345
1.2,0.315
1.202,0.34
1.204,0.255
1.206,0.24
1.208,0.135
1.21,0.17
1.212,0.225
1.214,0.285
1.216,0.305
1.218,0.37
1.22,0.41
1.222,0.305
1.224,0.18
1.226,0.11
1.228,0.065
1.23,0.105
1.232,0.085
1.234,0.18
1.236,0.21
1.238,0.335
1.24,0.31
1.242,0.25
1.244,0.145
1.246,0.125
1.248,0.025
1.25,0
1.252,0.1
1.254,0.19
1.256,0.18
1.258,0.3
1.26,0.28
1.262,0.195
1.264,0.13
1.266,0.115
1.268,0.03
1.27,0.01
1.272,0.03
1.274,0.1
1.276,0.115
1.278,0.22
1.28,0.23
1.282,0.11
1.284,-0.025
1.286,-0.005
1.288,-0.08
1.29,0
1.292,0.015
1.294,0.03
1.296,0.06
1.298,0.185
1.3,0.16
1.302,0.145
1.304,0.13
1.306,0.135
1.308,-0.01
1.31,-0.02
1.312,0.055
1.314,0.125
1.316,0.13
1.318,0.22
1.32,0.24
1.322,0.135
1.324,0.06
1.326,0.035
1.328,-0.035
1.33,-0.015
1.332,0.065
1.334,0.17
1.336,0.195
1.338,0.295
1.34,0.265
1.342,0.155
1.344,0.025
1.346,0.03
1.348,-0.055
1.35,-0.02
1.352,0.125
1.354,0.205
1.356,0.225
1.358,0.255
1.36,0.175
1.362,0.085
1.364,0.04
1.366,0.005
1.368,-0.03
1.37,-0.05
1.372,0.03
1.374,0.11
1.376,0.145
1.378,0.215
1.38,0.17
1.382,0.145
1.384,0.015
1.386,-0.03
1.388,-0.03
1.39,0
1.392,0.08
1.394,0.11
1.396,0.125
1.398,0.145
1.4,0.31
1.402,0.225
1.404,0.1
1.406,0.03
1.408,0.005
1.41,0.03
1.412,0.135
1.414,0.185
1.416,0.28
1.418,0.24
1.42,0.22
1.422,0.125
1.424,0.07
1.426,-0.01
1.428,-0.005
1.43,0.01
1.432,0.11
1.434,0.2
1.436,0.285
1.438,0.325
1.44,0.28
1.442,0.17
1.444,0.075
1.446,-0.02
1.448,-0.04
1.45,-0.01
1.452,0.075
1.454,0.085
1.456,0.2
1.458,0.24
1.46,0.21
1.462,0.12
1.464,0.025
1.466,-0.045
1.468,0.08
1.47,0.045
1.472,0.125
1.474,0.16
1.476,0.295
1.478,0.235
1.48,0.185
1.482,0.095
1.484,0.105
1.486,-0.005
1.488,0.03
1.49,0.07
1.492,0.085
1.494,0.13
1.496,0.275
1.498,0.26
1.5,0.225
1.502,0.115
1.504,0.135
1.506,0.015
1.508,-0.05
1.51,0
1.512,0.15
1.514,0.18
1.516,0.295
1.518,0.285
1.52,0.215
1.522,0.11
1.524,0.09
1.526,-0.015
1.528,0.005
1.53,0.045
1.532,0.13
1.534,0.15
1.536,0.26
1.538,0.275
1.54,0.225
1.542,0.13
1.544,0.13
1.546,-0.005
1.548,-0.01
1.55,0.085
1.552,0.17
1.554,0.175
1.556,0.235
1.558,0.245
1.56,0.2
1.562,0.135
1.564,0.145
1.566,0.015
1.568,0.025
1.57,0.03
1.572,0.14
1.574,0.165
1.576,0.235
1.578,0.28
1.58,0.245
1.582,0.045
1.584,0.04
1.586,-0.03
1.588,-0.04
1.59,0.045
1.592,0.185
1.594,0.225
1.596,0.275
1.598,0.275
1.6,0.195
1.602,0.12
1.604,0.08
1.606,0.015
1.608,0.04
1.61,0.09
1.612,0.155
1.614,0.185
1.616,0.245
1.618,0.24
1.62,0.165
1.622,0.11
1.624,0.105
1.626,0.065
1.628,0.08
1.63,0.17
1.632,0.29
1.634,0.265
1.636,0.225
1.638,0.17
1.64,0.13
1.642,0.12
1.644,0.095
1.646,0.005
1.648,-0.02
1.65,0.065
1.652,0.165
1.654,0.21
1.656,0.28
1.658,0.32
1.66,0.205
1.662,0.02
1.664,-0.115
1.666,-0.1
1.668,-0.02
1.67,0.12
1.672,0.18
1.674,0.26
1.676,0.29
1.678,0.275
1.68,0.165
1.682,0.08
1.684,-0.02
1.686,0
1.688,0.01
1.69,0.11
1.692,0.18
1.694,0.24
1.696,0.27
1.698,0.24
1.7,0.165
1.702,0.095
1.704,0.01
1.706,0.01
1.708,0.04
1.71,0.11
1.712,0.18
1.714,0.29
1.716,0.3
1.718,0.255
1.72,0.16
1.722,0.115
1.724,0.005
1.726,0.005
1.728,0.015
1.73,0.125
1.732,0.185
1.734,0.275
1.736,0.25
1.738,0.185
1.74,0.14
1.742,0.105
1.744,-0.04
1.746,-0.02
1.748,0.07
1.75,0.14
1.752,0.14
1.754,0.255
1.756,0.31
1.758,0.3
1.76,0.17
1.762,0.13
1.764,-0.01
1.766,0.025
1.768,0.095
1.77,0.2
1.772,0.235
1.774,0.325
1.776,0.28
1.778,0.25
1.78,0.165
1.782,0.135
1.784,0.025
1.786,0
1.788,0.01
1.79,0.1
1.792,0.155
1.794,0.27
1.796,0.215
1.798,0.19
1.8,0.115
1.802,0.085
1.804,-0.02
1.806,-0.02
1.808,0.04
1.81,0.13
1.812,0.17
1.814,0.245
1.816,0.21
1.818,0.18
1.82,0.095
1.822,0.055
1.824,-0.065
1.826,-0.045
1.828,0.04
1.83,0.1
1.832,0.07
1.834,0.16
1.836,0.235
1.838,0.23
1.84,0.105
1.842,0.07
1.844,0.03
1.846,0.065
1.848,0.125
1.85,0.235
1.852,0.4
1.854,0.605
1.856,0.7
1.858,0.715
1.86,0.67
1.862,0.695
1.864,0.585
1.866,0.575
1.868,0.59
1.87,0.51
1.872,0.44
1.874,0.525
1.876,0.5
1.878,0.29
1.88,0.125
1.882,0.13
1.884,0.065
1.886,0.015
1.888,0.045
1.89,0.145
1.892,0.235
1.894,0.275
1.896,0.235
1.898,0.2
1.9,0.115
1.902,0.055
1.904,0.02
1.906,0.01
1.908,0.075
1.91,0.175
1.912,0.195
1.914,0.225
1.916,0.22
1.918,0.185
1.92,0.095
1.922,0.03
1.924,-0.045
1.926,-0.02
1.928,0.075
1.93,0.165
1.932,0.17
1.934,0.205
1.936,0.24
1.938,0.15
1.94,0.07
1.942,0.035
1.944,0.04
1.946,0.045
1.948,0.1
1.95,0.15
1.952,0.23
1.954,0.27
1.956,0.245
1.958,0.135
1.96,0.035
1.962,-0.035
1.964,-0.08
1.966,-0.08
1.968,0.045
1.97,0.175
1.972,0.255
1.974,0.295
1.976,0.245
1.978,0.15
1.98,0.07
1.982,0
1.984,0.015
1.986,0.035
1.988,0.15
1.99,0.175
1.992,0.255
1.994,0.29
1.996,0.23
1.998,0.125
2,0.07
2.002,-0.01
2.004,0
2.006,0.015
2.008,0.105
2.01,0.15
2.012,0.265
2.014,0.245
2.016,0.205
2.018,0.11
2.02,0.08
2.022,0.01
2.024,0.015
2.026,0.07
2.028,0.17
2.03,0.185
2.032,0.3
2.034,0.275
2.036,0.2
2.038,0.125
2.04,0.115
2.042,0.005
2.044,-0.025
2.046,0.04
2.048,0.165
2.05,0.175
2.052,0.27
2.054,0.29
2.056,0.225
2.058,0.125
2.06,0.105
2.062,0
2.064,0.075
2.066,0.09
2.068,0.215
2.07,0.24
2.072,0.295
2.074,0.295
2.076,0.255
2.078,0.175
2.08,0.1
2.082,0.045
2.084,0.115
2.086,0.15
2.088,0.225
2.09,0.22
2.092,0.355
2.094,0.315
2.096,0.25
2.098,0.16
2.1,0.18
2.102,0.08
2.104,0.085
2.106,0.165
2.108,0.28
2.11,0.305
2.112,0.38
2.114,0.345
2.116,0.3
2.118,0.225
2.12,0.23
2.122,0.16
2.124,0.135
2.126,0.18
2.128,0.27
2.13,0.295
2.132,0.41
2.134,0.405
2.136,0.34
2.138,0.255
2.14,0.24
2.142,0.13
2.144,0.135
2.146,0.22
2.148,0.33
2.15,0.36
2.152,0.4
2.154,0.375
2.156,0.315
2.158,0.19
2.16,0.14
2.162,0.13
2.164,0.115
2.166,0.16
2.168,0.3
2.17,0.24
2.172,0.34
2.174,0.33
2.176,0.315
2.178,0.195
2.18,0.16
2.182,0.045
2.184,0.01
2.186,0.115
2.188,0.245
2.19,0.285
2.192,0.315
2.194,0.325
2.196,0.215
2.198,0.105
2.2,0.055
2.202,0.025
2.204,0.015
2.206,0.095
2.208,0.17
2.21,0.16
2.212,0.2
2.214,0.205
2.216,0.125
2.218,0.04
2.22,0.025
2.222,-0.005
2.224,0.01
2.226,0.08
2.228,0.085
2.23,0.18
2.232,0.215
2.234,0.185
2.236,0.13
2.238,0.025
2.24,-0.005
2.242,-0.035
2.244,-0.02
2.246,0.055
2.248,0.105
2.25,0.17
2.252,0.19
2.254,0.165
2.256,0.105
2.258,0.01
2.26,-0.11
2.262,-0.055
2.264,0.005
2.266,0.09
2.268,0.15
2.27,0.245
2.272,0.245
2.274,0.19
2.276,0.1
2.278,0.07
2.28,-0.095
2.282,-0.09
2.284,-0.09
2.286,0.045
2.288,0.12
2.29,0.17
2.292,0.175
2.294,0.16
2.296,0.07
2.298,0.12
2.3,-0.055
2.302,-0.04
2.304,-0.015
2.306,0.055
2.308,0.105
2.31,0.18
2.312,0.185
2.314,0.15
2.316,0.045
2.318,0.025
2.32,-0.065
2.322,-0.055
2.324,-0.045
2.326,0.08
2.328,0.165
2.33,0.2
2.332,0.16
2.334,0.105
2.336,0.07
2.338,0.01
2.34,-0.06
2.342,-0.03
2.344,0
2.346,0.095
2.348,0.125
2.35,0.215
2.352,0.18
2.354,0.15
2.356,0.11
2.358,0.055
2.36,-0.105
2.362,-0.115
2.364,-0.065
2.366,0.03
2.368,0.095
2.37,0.215
2.372,0.215
2.374,0.16
2.376,0.075
2.378,0.06
2.38,-0.06
2.382,-0.09
2.384,-0.05
2.386,0.07
2.388,0.05
2.39,0.135
2.392,0.165
2.394,0.12
2.396,0.025
2.398,0.04
2.4,-0.08
2.402,-0.11
2.404,-0.03
2.406,0.06
2.408,0.06
2.41,0.19
2.412,0.245
2.414,0.135
2.416,-0.01
2.418,0.04
2.42,-0.015
2.422,-0.045
2.424,-0.02
2.426,0.055
2.428,0.06
2.43,0.145
2.432,0.165
2.434,0.115
2.436,0.025
2.438,0.03
2.44,-0.045
2.442,-0.06
2.444,-0.02
2.446,0.08
2.448,0.115
2.45,0.19
2.452,0.185
2.454,0.13
2.456,0.055
2.458,0.03
2.46,-0.055
2.462,-0.065
2.464,0.01
2.466,0.08
2.468,0.115
2.47,0.18
2.472,0.12
2.474,0.03
2.476,-0.035
2.478,-0.07
2.48,-0.095
2.482,-0.105
2.484,-0.03
2.486,0.065
2.488,0.095
2.49,0.195
2.492,0.19
2.494,0.125
2.496,0.035
2.498,0.01
2.5,-0.04
2.502,-0.125
2.504,-0.035
2.506,0.05
2.508,0.15
2.51,0.21
2.512,0.16
2.514,0.07
2.516,-0.005
2.518,-0.055
2.52,-0.1
2.522,-0.08
2.524,0.045
2.526,0.095
2.528,0.185
2.53,0.225
2.532,0.175
2.534,0.05
2.536,-0.055
2.538,-0.08
2.54,-0.055
2.542,-0.01
2.544,0.04
2.546,0.135
2.548,0.15
2.55,0.135
2.552,0.09
2.554,0.05
2.556,0
2.558,-0.125
2.56,-0.13
2.562,-0.075
2.564,-0.01
2.566,0.05
2.568,0.195
2.57,0.135
2.572,0.065
2.574,0.005
2.576,0.025
2.578,-0.025
2.58,-0.055
2.582,-0.065
2.584,0.02
2.586,0.095
2.588,0.16
2.59,0.17
2.592,0.115
2.594,0.05
2.596,0.02
2.598,-0.115
2.6,-0.085
2.602,-0.01
2.604,0.08
2.606,0.11
2.608,0.185
2.61,0.145
2.612,0.1
2.614,0.045
2.616,0.005
2.618,-0.095
2.62,-0.075
2.622,-0.04
2.624,0.06
2.626,0.09
2.628,0.16
2.63,0.16
2.632,0.16
2.634,0.065
2.636,0.015
2.638,-0.065
2.64,-0.075
2.642,-0.065
2.644,0.04
2.646,0.075
2.648,0.19
2.65,0.18
2.652,0.135
2.654,0.065
2.656,0.03
2.658,-0.015
2.66,-0.04
2.662,-0.035
2.664,0.05
2.666,0.12
2.668,0.255
2.67,0.225
2.672,0.18
2.674,0.08
2.676,0.06
2.678,-0.05
2.68,-0.055
2.682,0.055
2.684,0.13
2.686,0.125
2.688,0.23
2.69,0.26
2.692,0.195
2.694,0.06
2.696,0.005
2.698,-0.085
2.7,-0.09
2.702,-0.045
2.704,0.07
2.706,0.075
2.708,0.16
2.71,0.16
2.712,0.13
2.714,0.015
2.716,-0.06
2.718,-0.16
2.72,-0.13
2.722,-0.015
2.724,0.065
2.726,0.085
2.728,0.17
2.73,0.195
2.732,0.165
2.734,0.035
2.736,-0.045
2.738,-0.125
2.74,-0.045
2.742,0
2.744,0.07
2.746,0.09
2.748,0.17
2.75,0.18
2.752,0.08
2.754,0.01
2.756,-0.02
2.758,-0.045
2.76,-0.05
2.762,0.075
2.764,0.235
2.766,0.36
2.768,0.435
2.77,0.57
2.772,0.585
2.774,0.51
2.776,0.49
2.778,0.465
2.78,0.42
2.782,0.37
2.784,0.34
2.786,0.325
2.788,0.335
2.79,0.225
2.792,0.05
2.794,-0.005
2.796,0.005
2.798,-0.055
2.8,-0.045
2.802,0.055
2.804,0.12
2.806,0.175
2.808,0.15
2.81,0.17
2.812,0.075
2.814,0.04
2.816,-0.055
2.818,-0.075
2.82,-0.045
2.822,0.04
2.824,0.09
2.826,0.155
2.828,0.165
2.83,0.18
2.832,0.08
2.834,0
2.836,-0.085
2.838,-0.06
2.84,-0.04
2.842,0.045
2.844,0.145
2.846,0.25
2.848,0.28
2.85,0.18
2.852,0.035
2.854,-0.005
2.856,-0.08
2.858,-0.055
2.86,-0.07
2.862,-0.005
2.864,0.04
2.866,0.155
2.868,0.135
2.87,0.15
2.872,0.07
2.874,0.025
2.876,-0.065
2.878,-0.025
2.88,0.055
2.882,0.165
2.884,0.145
2.886,0.23
2.888,0.225
2.89,0.16
2.892,0.075
2.894,0.05
2.896,-0.055
2.898,-0.03
2.9,0.01
2.902,0.125
2.904,0.165
2.906,0.28
2.908,0.27
2.91,0.235
2.912,0.125
2.914,0.05
2.916,-0.055
2.918,-0.03
2.92,0.03
2.922,0.11
2.924,0.145
2.926,0.22
2.928,0.22
2.93,0.155
2.932,0.07
2.934,0.07
2.936,-0.035
2.938,-0.05
2.94,0.005
2.942,0.145
2.944,0.145
2.946,0.23
2.948,0.235
2.95,0.195
2.952,0.105
2.954,0.085
2.956,-0.025
2.958,0.01
2.96,0.1
2.962,0.175
2.964,0.2
2.966,0.275
2.968,0.255
2.97,0.19
2.972,0.12
2.974,0.11
2.976,0.025
2.978,0.045
2.98,0.1
2.982,0.18
2.984,0.2
2.986,0.295
2.988,0.385
2.99,0.31
2.992,0.215
2.994,0.105
2.996,0.005
2.998,0.05
3,0.14
3.002,0.23
3.004,0.255
3.006,0.325
3.008,0.295
3.01,0.235
3.012,0.125
3.014,0.145
3.016,0.065
3.018,0.075
3.02,0.15
3.022,0.3
3.024,0.29
3.026,0.36
3.028,0.34
3.03,0.27
3.032,0.255
3.034,0.185
3.036,0.135
3.038,0.145
3.04,0.21
3.042,0.28
3.044,0.325
3.046,0.4
3.048,0.42
3.05,0.315
3.052,0.22
3.054,0.19
3.056,0.125
3.058,0.135
3.06,0.205
3.062,0.315
3.064,0.41
3.066,0.39
3.068,0.36
3.07,0.29
3.072,0.22
3.074,0.18
3.076,0.235
3.078,0.18
3.08,0.205
3.082,0.3
3.084,0.345
3.086,0.35
3.088,0.31
3.09,0.22
3.092,0.17
3.094,0.09
3.096,0.08
3.098,0.055
3.1,0.125
3.102,0.225
3.104,0.31
3.106,0.28
3.108,0.27
3.11,0.205
3.112,0.085
3.114,-0.05
3.116,-0.04
3.118,0
3.12,0.045
3.122,0.135
3.124,0.245
3.126,0.3
3.128,0.24
3.13,0.11
3.132,0.075
3.134,0.005
3.136,-0.005
3.138,-0.025
3.14,-0.005
3.142,0.095
3.144,0.17
3.146,0.17
3.148,0.08
3.15,0.01
3.152,0.05
3.154,-0.025
3.156,-0.005
3.158,0
3.16,0.045
3.162,0.095
3.164,0.22
3.166,0.215
3.168,0.19
3.17,0.07
3.172,0.06
3.174,-0.075
3.176,-0.025
3.178,-0.01
3.18,0.08
3.182,0.115
3.184,0.195
3.186,0.19
3.188,0.135
3.19,0.06
3.192,0.02
3.194,-0.075
3.196,-0.07
3.198,-0.035
3.2,0.065
3.202,0.13
3.204,0.22
3.206,0.215
3.208,0.18
3.21,0.085
3.212,0.025
3.214,-0.09
3.216,-0.08
3.218,-0.06
3.22,0.075
3.222,0.075
3.224,0.15
3.226,0.16
3.228,0.11
3.23,0.075
3.232,0.12
3.234,0.04
3.236,0.025
3.238,0.055
3.24,0.035
3.242,0.09
3.244,0.18
3.246,0.135
3.248,0.1
3.25,0.015
3.252,-0.015
3.254,-0.01
3.256,-0.06
3.258,-0.015
3.26,0.07
3.262,0.075
3.264,0.145
3.266,0.175
3.268,0.15
3.27,0.105
3.272,0.065
3.274,-0.055
3.276,-0.05
3.278,0.03
3.28,0.105
3.282,0.105
3.284,0.205
3.286,0.165
3.288,0.09
3.29,0.035
3.292,0.005
3.294,-0.065
3.296,-0.09
3.298,-0.015
3.3,0.135
3.302,0.15
3.304,0.21
3.306,0.22
3.308,0.145
3.31,0.075
3.312,0.02
3.314,-0.055
3.316,-0.065
3.318,0.025
3.32,0.14
3.322,0.16
3.324,0.22
3.326,0.225
3.328,0.165
3.33,0.05
3.332,-0.01
3.334,-0.055
3.336,-0.045
3.338,0.01
3.34,0.075
3.342,0.145
3.344,0.16
3.346,0.125
3.348,0.095
3.35,-0.025
3.352,-0.085
3.354,-0.09
3.356,-0.06
3.358,0
3.36,0.05
3.362,0.12
3.364,0.13
3.366,0.17
3.368,0.125
3.37,0.065
3.372,-0.03
3.374,-0.04
3.376,-0.07
3.378,0.02
3.38,0.09
3.382,0.21
3.384,0.25
3.386,0.215
3.388,0.125
3.39,0.055
3.392,-0.04
3.394,-0.05
3.396,-0.05
3.398,0.025
3.4,0.095
3.402,0.17
3.404,0.185
3.406,0.14
3.408,0.055
3.41,0.035
3.412,-0.08
3.414,-0.08
3.416,-0.075
3.418,0.04
3.42,0.09
3.422,0.155
3.424,0.155
3.426,0.17
3.428,0.07
3.43,-0.04
3.432,-0.045
3.434,-0.035
3.436,-0.015
3.438,0.05
3.44,0.085
3.442,0.165
3.444,0.155
3.446,0.135
3.448,0.02
3.45,-0.035
3.452,-0.125
3.454,-0.095
3.456,-0.015
3.458,0.025
3.46,0.065
3.462,0.205
3.464,0.16
3.466,0.13
3.468,0.02
3.47,0
3.472,-0.04
3.474,-0.04
3.476,-0.07
3.478,-0.01
3.48,0.045
3.482,0.18
3.484,0.155
3.486,0.145
3.488,0.01
3.49,-0.05
3.492,-0.125
3.494,-0.075
3.496,-0.01
3.498,0.085
3.5,0.125
3.502,0.25
3.504,0.225
3.506,0.135
3.508,0.015
3.51,-0.005
3.512,-0.095
3.514,-0.08
3.516,-0.04
3.518,0.07
3.52,0.095
3.522,0.175
3.524,0.15
3.526,0.11
3.528,0.015
3.53,0.02
3.532,-0.09
3.534,-0.07
3.536,0.025
3.538,0.135
3.54,0.15
3.542,0.255
3.544,0.26
3.546,0.17
3.548,0.09
3.55,0.035
3.552,-0.075
3.554,-0.085
3.556,-0.01
3.558,0.08
3.56,0.11
3.562,0.23
3.564,0.23
3.566,0.13
3.568,0.06
3.57,-0.03
3.572,-0.155
3.574,-0.11
3.576,0.09
3.578,0.17
3.58,0.12
3.582,0.155
3.584,0.13
3.586,0.1
3.588,0.035
3.59,0
3.592,-0.055
3.594,-0.08
3.596,-0.005
3.598,0.06
3.6,0
3.602,0.21
3.604,0.185
3.606,0.08
3.608,-0.01
3.61,-0.055
3.612,-0.095
3.614,-0.09
3.616,-0.01
3.618,0.09
3.62,0.125
3.622,0.16
3.624,0.14
3.626,0.075
3.628,-0.005
3.63,-0.08
3.632,-0.11
3.634,-0.11
3.636,-0.04
3.638,0.025
3.64,0.045
3.642,0.1
3.644,0.115
3.646,0.045
3.648,0.04
3.65,0.18
3.652,0.24
3.654,0.295
3.656,0.45
3.658,0.6
3.66,0.73
3.662,0.78
3.664,0.735
3.666,0.62
3.668,0.46
3.67,0.255
3.672,0.175
3.674,0.135
3.676,0.14
3.678,0.145
3.68,0.155
3.682,0.14
3.684,0.175
3.686,0.1
3.688,0.03
3.69,-0.06
3.692,-0.095
3.694,-0.07
3.696,0.045
3.698,0.09
3.7,0.155
3.702,0.17
3.704,0.13
3.706,0.04
3.708,-0.025
3.71,-0.135
3.712,-0.085
3.714,-0.12
3.716,-0.03
3.718,0.02
3.72,0.155
3.722,0.175
3.724,0.115
3.726,0.005
3.728,-0.02
3.73,-0.115
3.732,-0.105
3.734,-0.075
3.736,0.03
3.738,0.04
3.74,0.155
3.742,0.145
3.744,0.11
3.746,0.02
3.748,-0.025
3.75,-0.12
3.752,-0.08
3.754,-0.09
3.756,-0.01
3.758,0.005
3.76,0.1
3.762,0.11
3.764,0.125
3.766,0.085
3.768,0.02
3.77,-0.06
3.772,-0.04
3.774,-0.01
3.776,0.065
3.778,0.08
3.78,0.15
3.782,0.15
3.784,0.06
3.786,-0.005
3.788,-0.035
3.79,-0.13
3.792,-0.065
3.794,0.005
3.796,0.07
3.798,0.085
3.8,0.155
3.802,0.135
3.804,0.115
3.806,0.035
3.808,0.06
3.81,-0.065
3.812,-0.02
3.814,0.05
3.816,0.06
3.818,0.085
3.82,0.19
3.822,0.165
3.824,0.125
3.826,0.06
3.828,0.045
3.83,-0.03
3.832,-0.065
3.834,0
3.836,0.065
3.838,0.075
3.84,0.22
3.842,0.22
3.844,0.14
3.846,0.025
3.848,0.02
3.85,-0.075
3.852,-0.04
3.854,0.055
3.856,0.15
3.858,0.19
3.86,0.285
3.862,0.275
3.864,0.2
3.866,0.075
3.868,0.03
3.87,-0.01
3.872,-0.005
3.874,0.105
3.876,0.135
3.878,0.125
3.88,0.215
3.882,0.245
3.884,0.21
3.886,0.15
3.888,0.1
3.89,0.05
3.892,0.04
3.894,0.12
3.896,0.21
3.898,0.245
3.9,0.325
3.902,0.35
3.904,0.255
3.906,0.15
3.908,0.095
3.91,0.055
3.912,0.06
3.914,0.125
3.916,0.22
3.918,0.34
3.92,0.36
3.922,0.28
3.924,0.29
3.926,0.185
3.928,0.1
3.93,0.03
3.932,0.08
3.934,0.23
3.936,0.295
3.938,0.355
3.94,0.37
3.942,0.355
3.944,0.29
3.946,0.185
3.948,0.1
3.95,0.095
3.952,0.08
3.954,0.17
3.956,0.215
3.958,0.35
3.96,0.365
3.962,0.335
3.964,0.255
3.966,0.175
3.968,0.115
3.97,0.12
3.972,0.095
3.974,0.175
3.976,0.19
3.978,0.285
3.98,0.285
3.982,0.255
3.984,0.155
3.986,0.09
3.988,-0.01
3.99,-0.015
3.992,-0.015
3.994,0.06
3.996,0.11
3.998,0.225
4,0.235
4.002,0.23
4.004,0.08
4.006,0.025
4.008,-0.045
4.01,-0.055
4.012,-0.005
4.014,0.08
4.016,0.09
4.018,0.205
4.02,0.18
4.022,0.14
4.024,0.04
4.026,-0.025
4.028,-0.15
4.03,-0.19
4.032,-0.055
4.034,0.135
4.036,0.12
4.038,0.16
4.04,0.1
4.042,0.135
4.044,0.09
4.046,0.05
4.048,-0.085
4.05,-0.07
4.052,-0.03
4.054,0.045
4.056,0.035
4.058,0.155
4.06,0.18
4.062,0.145
4.064,0.06
4.066,0.025
4.068,-0.09
4.07,-0.08
4.072,-0.005
4.074,0.075
4.076,0.1
4.078,0.19
4.08,0.18
4.082,0.115
4.084,0.035
4.086,0.005
4.088,-0.065
4.09,-0.11
4.092,-0.085
4.094,0.055
4.096,0.105
4.098,0.185
4.1,0.18
4.102,0.105
4.104,0.01
4.106,-0.01
4.108,-0.11
4.11,-0.115
4.112,-0.06
4.114,0.06
4.116,0.055
4.118,0.16
4.12,0.145
4.122,0.025
4.124,-0.02
4.126,0.055
4.128,-0.005
4.13,-0.045
4.132,0.015
4.134,0.095
4.136,0.085
4.138,0.16
4.14,0.195
4.142,0.135
4.144,0.08
4.146,0.025
4.148,-0.08
4.15,-0.13
4.152,-0.01
4.154,0.07
4.156,0.09
4.158,0.165
4.16,0.14
4.162,0.08
4.164,0.01
4.166,0.015
4.168,-0.02
4.17,-0.025
4.172,0.005
4.174,0.075
4.176,0.13
4.178,0.14
4.18,0.11
4.182,0.065
4.184,0.05
4.186,-0.04
4.188,-0.085
4.19,-0.07
4.192,-0.055
4.194,-0.01
4.196,0.06
4.198,0.1
4.2,0.155
4.202,0.14
4.204,0.06
4.206,-0.015
4.208,-0.025
4.21,-0.01
4.212,0.1
4.214,0.145
4.216,0.11
4.218,0.13
4.22,0.085
4.222,0.005
4.224,-0.025
4.226,-0.08
4.228,-0.075
4.23,-0.065
4.232,0.045
4.234,0.095
4.236,0.16
4.238,0.205
4.24,0.15
4.242,0.075
4.244,0.01
4.246,-0.08
4.248,-0.115
4.25,-0.105
4.252,0.035
4.254,0.045
4.256,0.085
4.258,0.155
4.26,0.22
4.262,0.095
4.264,0.005
4.266,-0.07
4.268,-0.07
4.27,-0.095
4.272,0.035
4.274,0.085
4.276,0.195
4.278,0.2
4.28,0.145
4.282,0.07
4.284,0.01
4.286,-0.065
4.288,-0.05
4.29,-0.02
4.292,0.05
4.294,0.08
4.296,0.175
4.298,0.16
4.3,0.115
4.302,0.065
4.304,0.06
4.306,-0.05
4.308,-0.07
4.31,-0.055
4.312,0.035
4.314,0.09
4.316,0.235
4.318,0.16
4.32,0.06
4.322,-0.04
4.324,-0.055
4.326,-0.13
4.328,-0.095
4.33,-0.045
4.332,0.05
4.334,0.075
4.336,0.18
4.338,0.175
4.34,0.12
4.342,0.03
4.344,-0.015
4.346,-0.125
4.348,-0.16
4.35,-0.03
4.352,0.125
4.354,0.055
4.356,0.14
4.358,0.23
4.36,0.13
4.362,-0.015
4.364,-0.025
4.366,-0.085
4.368,-0.035
4.37,0.045
4.372,0.155
4.374,0.135
4.376,0.19
4.378,0.22
4.38,0.145
4.382,0.065
4.384,0.065
4.386,0.005
4.388,-0.015
4.39,0.035
4.392,0.12
4.394,0.11
4.396,0.19
4.398,0.16
4.4,0.095
4.402,0.01
4.404,0.05
4.406,0
4.408,-0.025
4.41,0.06
4.412,0.145
4.414,0.12
4.416,0.215
4.418,0.275
4.42,0.145
4.422,0.06
4.424,0.035
4.426,-0.085
4.428,-0.08
4.43,0.02
4.432,0.03
4.434,0.025
4.436,0.085
4.438,0.06
4.44,0.045
4.442,0
4.444,-0.05
4.446,-0.1
4.448,-0.105
4.45,0.025
4.452,0.095
4.454,0.14
4.456,0.195
4.458,0.165
4.46,0.07
4.462,0.01
4.464,-0.07
4.466,-0.11
4.468,-0.13
4.47,-0.055
4.472,0.025
4.474,0.08
4.476,0.155
4.478,0.1
4.48,0.125
4.482,0.07
4.484,-0.01
4.486,0.005
4.488,0.12
4.49,0.285
4.492,0.435
4.494,0.57
4.496,0.655
4.498,0.62
4.5,0.575
4.502,0.565
4.504,0.425
4.506,0.295
4.508,0.205
4.51,0.25
4.512,0.28
4.514,0.24
4.516,0.135
4.518,0.065
4.52,-0.045
4.522,-0.085
4.524,-0.155
4.526,0.015
4.528,0
4.53,0.03
4.532,0.105
4.534,0.145
4.536,0.17
4.538,0.185
4.54,0.08
4.542,0.02
4.544,-0.095
4.546,-0.12
4.548,-0.09
4.55,-0.05
4.552,0.02
4.554,0.19
4.556,0.23
4.558,0.165
4.56,0.075
4.562,0.045
4.564,-0.09
4.566,-0.08
4.568,-0.045
4.57,0.035
4.572,0.065
4.574,0.175
4.576,0.14
4.578,0.155
4.58,0.05
4.582,0.045
4.584,-0.1
4.586,-0.105
4.588,-0.035
4.59,0.07
4.592,0.11
4.594,0.225
4.596,0.18
4.598,0.14
4.6,0.06
4.602,-0.035
4.604,-0.185
4.606,-0.165
4.608,-0.04
4.61,0.095
4.612,0.075
4.614,0.2
4.616,0.21
4.618,0.14
4.62,-0.03
4.622,-0.01
4.624,-0.09
4.626,-0.115
4.628,-0.045
4.63,0.05
4.632,0.095
4.634,0.225
4.636,0.2
4.638,0.115
4.64,0.045
4.642,0.045
4.644,0
4.646,-0.02
4.648,0.03
4.65,0.125
4.652,0.115
4.654,0.205
4.656,0.24
4.658,0.185
4.66,0.03
4.662,0.045
4.664,-0.015
4.666,-0.07
4.668,0
4.67,0.05
4.672,0.055
4.674,0.155
4.676,0.21
4.678,0.125
4.68,0.07
4.682,0.105
4.684,-0.01
4.686,-0.055
4.688,0.04
4.69,0.15
4.692,0.165
4.694,0.245
4.696,0.215
4.698,0.14
4.7,0.09
4.702,0.055
4.704,-0.015
4.706,0.025
4.708,0.11
4.71,0.205
4.712,0.195
4.714,0.245
4.716,0.235
4.718,0.25
4.72,0.14
4.722,0.095
4.724,-0.025
4.726,-0.005
4.728,0.11
4.73,0.22
4.732,0.255
4.734,0.295
4.736,0.265
4.738,0.27
4.74,0.235
4.742,0.11
4.744,0.03
4.746,0.065
4.748,0.155
4.75,0.245
4.752,0.285
4.754,0.305
4.756,0.275
4.758,0.32
4.76,0.24
4.762,0.165
4.764,0.095
4.766,0.095
4.768,0.205
4.77,0.265
4.772,0.355
4.774,0.39
4.776,0.36
4.778,0.245
4.78,0.185
4.782,0.16
4.784,0.165
4.786,0.105
4.788,0.135
4.79,0.245
4.792,0.32
4.794,0.345
4.796,0.33
4.798,0.225
4.8,0.195
4.802,0.105
4.804,0.025
4.806,0.1
4.808,0.205
4.81,0.235
4.812,0.305
4.814,0.305
4.816,0.27
4.818,0.195
4.82,0.115
4.822,-0.005
4.824,0.02
4.826,0.03
4.828,0.09
4.83,0.145
4.832,0.26
4.834,0.26
4.836,0.25
4.838,0.165
4.84,0.135
4.842,-0.05
4.844,-0.11
4.846,-0.07
4.848,0.02
4.85,0.07
4.852,0.165
4.854,0.145
4.856,0.13
4.858,0.045
4.86,0.055
4.862,-0.165
4.864,-0.095
4.866,0.045
4.868,0.05
4.87,0.025
4.872,0.11
4.874,0.17
4.876,0.125
4.878,0.05
4.88,-0.005
4.882,-0.095
4.884,-0.095
4.886,-0.06
4.888,0.015
4.89,0.045
4.892,0.195
4.894,0.205
4.896,0.17
4.898,0.08
4.9,0.01
4.902,-0.11
4.904,-0.085
4.906,-0.02
4.908,0.055
4.91,0.03
4.912,0.095
4.914,0.16
4.916,0.17
4.918,0.035
4.92,0.04
4.922,-0.07
4.924,0.025
4.926,0.035
4.928,0.095
4.93,0.115
4.932,0.2
4.934,0.22
4.936,0.15
4.938,0.015
4.94,-0.005
4.942,-0.095
4.944,-0.105
4.946,-0.03
4.948,0.055
4.95,0.09
4.952,0.2
4.954,0.18
4.956,0.105
4.958,0.015
4.96,-0.02
4.962,-0.09
4.964,-0.075
4.966,-0.015
4.968,0.095
4.97,0.085
4.972,0.155
4.974,0.175
4.976,0.105
4.978,0
4.98,0.015
4.982,-0.035
4.984,-0.025
4.986,0.06
4.988,0.145
4.99,0.14
4.992,0.195
4.994,0.16
4.996,0.015
4.998,-0.09
5,-0.04
5.002,-0.03
5.004,-0.06
5.006,-0.015
5.008,0.025
5.01,0.09
5.012,0.19
5.014,0.16
5.016,0.14
5.018,0.08
5.02,0.075
5.022,-0.01
5.024,-0.05
5.026,-0.01
5.028,0.08
5.03,0.145
5.032,0.195
5.034,0.185
5.036,0.07
5.038,-0.005
5.04,-0.04
5.042,-0.05
5.044,-0.02
5.046,0.02
5.048,0.11
5.05,0.17
5.052,0.22
5.054,0.2
5.056,0.105
5.058,0.005
5.06,-0.05
5.062,-0.085
5.064,-0.055
5.066,0.02
5.068,0.125
5.07,0.155
5.072,0.18
5.074,0.135
5.076,0.07
5.078,0.01
5.08,-0.07
5.082,-0.095
5.084,-0.075
5.086,-0.02
5.088,0.025
5.09,0.095
5.092,0.17
5.094,0.2
5.096,0.135
5.098,0.095
5.1,-0.015
5.102,-0.02
5.104,0
5.106,0.125
5.108,0.15
5.11,0.22
5.112,0.2
5.114,0.205
5.116,0.14
5.118,0.16
5.12,0.015
5.122,0
5.124,0.035
5.126,0.09
5.128,0.12
5.13,0.28
5.132,0.235
5.134,0.155
5.136,0.015
5.138,0.005
5.14,-0.1
5.142,-0.095
5.144,-0.025
5.146,0.05
5.148,0.075
5.15,0.17
5.152,0.19
5.154,0.17
5.156,0.075
5.158,0.01
5.16,-0.125
5.162,-0.11
5.164,-0.02
5.166,0.1
5.168,0.115
5.17,0.18
5.172,0.165
5.174,0.08
5.176,0.04
5.178,0.045
5.18,-0.035
5.182,-0.055
5.184,0
5.186,0.055
5.188,0.075
5.19,0.155
5.192,0.14
5.194,0.09
5.196,-0.005
5.198,-0.06
5.2,-0.13
5.202,-0.095
5.204,-0.065
5.206,0.095
5.208,0.185
5.21,0.395
5.212,0.445
5.214,0.42
5.216,0.455
5.218,0.52
5.22,0.45
5.222,0.44
5.224,0.45
5.226,0.475
5.228,0.445
5.23,0.44
5.232,0.39
5.234,0.235
5.236,0.095
5.238,-0.01
5.24,-0.105
5.242,-0.08
5.244,-0.02
5.246,0.095
5.248,0.135
5.25,0.255
5.252,0.185
5.254,0.11
5.256,0.03
5.258,0.015
5.26,-0.065
5.262,-0.06
5.264,0
5.266,0.06
5.268,0.08
5.27,0.145
5.272,0.145
5.274,0.07
5.276,-0.07
5.278,0.025
5.28,-0.015
5.282,-0.095
5.284,-0.02
5.286,0.035
5.288,0.1
5.29,0.17
5.292,0.165
5.294,0.08
5.296,-0.01
5.298,-0.08
5.3,-0.085
5.302,-0.005
5.304,0.065
5.306,0.125
5.308,0.15
5.31,0.215
5.312,0.26
5.314,0.17
5.316,0.065
5.318,0.02
5.32,0
5.322,-0.035
5.324,0.015
5.326,0.085
5.328,0.115
5.33,0.165
5.332,0.19
5.334,0.14
5.336,0.02
5.338,-0.03
5.34,-0.085
5.342,-0.07
5.344,0.01
5.346,0.075
5.348,0.155
5.35,0.175
5.352,0.165
5.354,0.065
5.356,0.01
5.358,-0.065
5.36,-0.06
5.362,-0.06
5.364,0.04
5.366,0.115
5.368,0.175
5.37,0.17
5.372,0.205
5.374,0.125
5.376,0.095
5.378,-0.02
5.38,-0.15
5.382,-0.15
5.384,0.015
5.386,0.17
5.388,0.25
5.39,0.21
5.392,0.16
5.394,0.135
5.396,0.06
5.398,-0.065
5.4,-0.03
5.402,0.015
5.404,0.035
5.406,0.13
5.408,0.24
5.41,0.2
5.412,0.19
5.414,0.115
5.416,0.045
5.418,-0.07
5.42,-0.01
5.422,0.06
5.424,0.205
5.426,0.275
5.428,0.37
5.43,0.29
5.432,0.235
5.434,0.14
5.436,0.115
5.438,-0.02
5.44,0.015
5.442,0.07
5.444,0.21
5.446,0.21
5.448,0.28
5.45,0.305
5.452,0.26
5.454,0.165
5.456,0.105
5.458,-0.005
5.46,0.045
5.462,0.095
5.464,0.165
5.466,0.205
5.468,0.305
5.47,0.285
5.472,0.205
5.474,0.13
5.476,0.205
5.478,0.045
5.48,0.045
5.482,0.105
5.484,0.22
5.486,0.255
5.488,0.4
5.49,0.41
5.492,0.3
5.494,0.285
5.496,0.25
5.498,0.15
5.5,0.145
5.502,0.165
5.504,0.23
5.506,0.225
5.508,0.345
5.51,0.38
5.512,0.255
5.514,0.15
5.516,0.15
5.518,0.085
5.52,0.085
5.522,0.125
5.524,0.175
5.526,0.2
5.528,0.295
5.53,0.25
5.532,0.2
5.534,0.14
5.536,0.09
5.538,0.015
5.54,0
5.542,0.025
5.544,0.09
5.546,0.14
5.548,0.25
5.55,0.235
5.552,0.175
5.554,0.095
5.556,0.035
5.558,-0.07
5.56,-0.07
5.562,-0.02
5.564,0.015
5.566,0.06
5.568,0.18
5.57,0.185
5.572,0.09
5.574,-0.025
5.576,-0.06
5.578,-0.105
5.58,-0.085
5.582,0.05
5.584,0.145
5.586,0.155
5.588,0.13
5.59,0.13
5.592,0.08
5.594,-0.005
5.596,-0.09
5.598,-0.115
5.6,-0.1
5.602,-0.02
5.604,0.05
5.606,0.125
5.608,0.17
5.61,0.095
5.612,0.02
5.614,-0.075
5.616,-0.06
5.618,-0.08
5.62,-0.065
5.622,-0.01
5.624,0.06
5.626,0.11
5.628,0.085
5.63,0.065
5.632,0.12
5.634,0.01
5.636,-0.045
5.638,-0.015
5.64,-0.03
5.642,-0.01
5.644,0.075
5.646,0.145
5.648,0.135
5.65,0.15
5.652,0.115
5.654,0.025
5.656,-0.07
5.658,-0.09
5.66,-0.09
5.662,0.015
5.664,0.065
5.666,0.155
5.668,0.165
5.67,0.13
5.672,0.055
5.674,0.025
5.676,-0.07
5.678,-0.06
5.68,-0.045
5.682,0.05
5.684,0.06
5.686,0.1
5.688,0.14
5.69,0.09
5.692,0.015
5.694,-0.015
5.696,-0.1
5.698,-0.075
5.7,-0.07
5.702,0.01
5.704,0.065
5.706,0.175
5.708,0.13
5.71,0.105
5.712,0.025
5.714,-0.06
5.716,-0.13
5.718,-0.09
5.72,-0.075
5.722,0.04
5.724,0.08
5.726,0.165
5.728,0.17
5.73,0.13
5.732,0.035
5.734,-0.02
5.736,-0.09
5.738,-0.05
5.74,-0.035
5.742,0.01
5.744,0.1
5.746,0.24
5.748,0.155
5.75,0.135
5.752,0.035
5.754,0.01
5.756,-0.065
5.758,-0.095
5.76,-0.09
5.762,0.085
5.764,0.035
5.766,0.1
5.768,0.1
5.77,0.055
5.772,-0.005
5.774,0.015
5.776,-0.09
5.778,-0.095
5.78,-0.055
5.782,0.015
5.784,0.06
5.786,0.12
5.788,0.11
5.79,0.07
5.792,0.025
5.794,-0.02
5.796,-0.135
5.798,-0.155
5.8,-0.075
5.802,0.01
5.804,0.08
5.806,0.165
5.808,0.23
5.81,0.135
5.812,0.03
5.814,0.03
5.816,-0.015
5.818,-0.075
5.82,-0.02
5.822,0.055
5.824,0.06
5.826,0.175
5.828,0.185
5.83,0.14
5.832,0.085
5.834,0.07
5.836,-0.015
5.838,-0.025
5.84,0.02
5.842,0.07
5.844,0.095
5.846,0.225
5.848,0.27
5.85,0.18
5.852,0.09
5.854,0.075
5.856,-0.02
5.858,-0.05
5.86,0.035
5.862,0.1
5.864,0.105
5.866,0.22
5.868,0.18
5.87,0.09
5.872,0.01
5.874,-0.02
5.876,-0.09
5.878,-0.115
5.88,-0.055
5.882,0.035
5.884,0.08
5.886,0.115
5.888,0.135
5.89,0.04
5.892,0
5.894,-0.01
5.896,-0.085
5.898,-0.075
5.9,0.02
5.902,0.125
5.904,0.16
5.906,0.16
5.908,0.11
5.91,0.055
5.912,-0.03
5.914,-0.11
5.916,-0.155
5.918,-0.11
5.92,0
5.922,0.075
5.924,0.115
5.926,0.115
5.928,0.145
5.93,0.085
5.932,0.035
5.934,-0.04
5.936,0.01
5.938,0.1
5.94,0.28
5.942,0.4
5.944,0.545
5.946,0.685
5.948,0.715
5.95,0.69
5.952,0.605
5.954,0.41
5.956,0.315
5.958,0.2
5.96,0.255
5.962,0.385
5.964,0.44
5.966,0.34
5.968,0.205
5.97,0.08
5.972,0.03
5.974,-0.05
5.976,-0.02
5.978,-0.025
5.98,0.075
5.982,0.095
5.984,0.135
5.986,0.105
5.988,0.08
5.99,-0.02
5.992,-0.1
5.994,-0.13
5.996,-0.105
5.998,-0.075
6,0.01
6.002,0.035
6.004,0.2
6.006,0.18
6.008,0.125
6.01,0.01
6.012,-0.05
6.014,-0.135
6.016,-0.135
6.018,-0.065
6.02,0.01
6.022,0.005
6.024,0.15
6.026,0.155
6.028,0.125
6.03,0.09
6.032,0.04
6.034,-0.09
6.036,-0.075
6.038,0.015
6.04,0.115
6.042,0.085
6.044,0.135
6.046,0.135
6.048,0.13
6.05,0.075
6.052,0.05
6.054,-0.075
6.056,-0.17
6.058,-0.165
6.06,-0.035
6.062,0.02
6.064,0.14
6.066,0.175
6.068,0.11
6.07,0.015
6.072,-0.05
6.074,-0.125
6.076,-0.135
6.078,-0.11
6.08,-0.03
6.082,0.05
6.084,0.145
6.086,0.15
6.088,0.055
6.09,0.01
6.092,-0.005
6.094,-0.085
6.096,-0.09
6.098,-0.01
6.1,0.06
6.102,0.055
6.104,0.145
6.106,0.17
6.108,0.085
6.11,-0.005
6.112,-0.005
6.114,-0.095
6.116,-0.155
6.118,-0.025
6.12,0.075
6.122,0.085
6.124,0.18
6.126,0.165
6.128,0.09
6.13,0.03
6.132,0.02
6.134,-0.035
6.136,-0.065
6.138,0.03
6.14,0.11
6.142,0.155
6.144,0.225
6.146,0.225
6.148,0.195
6.15,0.13
6.152,0.015
6.154,-0.13
6.156,-0.13
6.158,0.03
6.16,0.135
6.162,0.135
6.164,0.185
6.166,0.165
6.168,0.095
6.17,0.07
6.172,0.005
6.174,-0.055
6.176,-0.01
6.178,0.09
6.18,0.155
6.182,0.2
6.184,0.25
6.186,0.225
6.188,0.14
6.19,0.1
6.192,0.03
6.194,-0.02
6.196,0.045
6.198,0.125
6.2,0.175
6.202,0.255
6.204,0.33
6.206,0.315
6.208,0.225
6.21,0.155
6.212,0.115
6.214,0.105
6.216,0.09
6.218,0.195
6.22,0.285
6.222,0.31
6.224,0.325
6.226,0.26
6.228,0.16
6.23,0.165
6.232,0.045
6.234,0.025
6.236,0.055
6.238,0.195
6.24,0.275
6.242,0.29
6.244,0.27
6.246,0.25
6.248,0.18
6.25,0.16
6.252,0.045
6.254,0.08
6.256,0.055
6.258,0.08
6.26,0.14
6.262,0.29
6.264,0.28
6.266,0.16
6.268,0.04
6.27,0.025
6.272,-0.055
6.274,-0.045
6.276,0
6.278,0.165
6.28,0.23
6.282,0.22
6.284,0.11
6.286,0.11
6.288,0.055
6.29,0.05
6.292,-0.045
6.294,-0.05
6.296,-0.045
6.298,0.03
6.3,0.085
6.302,0.195
6.304,0.16
6.306,0.095
6.308,-0.005
6.31,-0.035
6.312,-0.125
6.314,-0.105
6.316,-0.095
6.318,-0.04
6.32,-0.08
6.322,0.11
6.324,0.245
6.326,0.2
6.328,0.045
6.33,0.03
6.332,-0.065
6.334,-0.105
6.336,-0.07
6.338,0
6.34,0.035
6.342,0.165
6.344,0.185
6.346,0.11
6.348,0.065
6.35,0.065
6.352,-0.005
6.354,0.02
6.356,0.005
6.358,0.045
6.36,0.085
6.362,0.175
6.364,0.135
6.366,0.075
6.368,-0.005
6.37,0.005
6.372,-0.1
6.374,-0.13
6.376,-0.065
6.378,-0.02
6.38,0.05
6.382,0.14
6.384,0.13
6.386,0.09
6.388,0.055
6.39,0.055
6.392,-0.135
6.394,-0.135
6.396,-0.055
6.398,0.05
6.4,0.175
6.402,0.17
6.404,0.175
6.406,0.095
6.408,0.025
6.41,0
6.412,-0.05
6.414,-0.055
6.416,-0.02
6.418,0.045
6.42,0.1
6.422,0.225
6.424,0.235
6.426,0.115
6.428,-0.02
6.43,-0.06
6.432,-0.07
6.434,-0.075
6.436,0.03
6.438,0.12
6.44,0.135
6.442,0.145
6.444,0.145
6.446,0.075
6.448,-0.01
6.45,-0.03
6.452,-0.075
6.454,-0.085
6.456,-0.01
6.458,0.07
6.46,0.16
6.462,0.25
6.464,0.215
6.466,0.145
6.468,0.03
6.47,-0.025
6.472,-0.085
6.474,-0.08
6.476,0.005
6.478,0.075
6.48,0.125
6.482,0.15
6.484,0.125
6.486,0.05
6.488,-0.025
6.49,-0.095
6.492,-0.125
6.494,-0.16
6.496,-0.05
6.498,0.06
6.5,0.285
6.502,0.35
6.504,0.315
6.506,0.175
6.508,0.015
6.51,-0.06
6.512,-0.12
6.514,-0.115
6.516,0.035
6.518,0.05
6.52,0.17
6.522,0.185
6.524,0.14
6.526,0.055
6.528,0.015
6.53,-0.085
6.532,-0.065
6.534,-0.05
6.536,0.03
6.538,0.085
6.54,0.165
6.542,0.16
6.544,0.125
6.546,0.015
6.548,0.025
6.55,-0.08
6.552,-0.035
6.554,-0.05
6.556,0.01
6.558,0.1
6.56,0.185
6.562,0.16
6.564,0.11
6.566,0.155
6.568,-0.01
6.57,-0.11
6.572,-0.04
6.574,-0.045
6.576,0.045
6.578,0.11
6.58,0.2
6.582,0.195
6.584,0.155
6.586,0.09
6.588,0.105
6.59,0.025
6.592,0.04
6.594,0.08
6.596,0.14
6.598,0.145
6.6,0.235
6.602,0.24
6.604,0.18
6.606,0.1
6.608,0.075
6.61,-0.02
6.612,0
6.614,0.045
6.616,0.115
6.618,0.13
6.62,0.215
6.622,0.21
6.624,0.135
6.626,0.05
6.628,0.025
6.63,-0.09
6.632,-0.09
6.634,-0.01
6.636,0.095
6.638,0.14
6.64,0.26
6.642,0.205
6.644,0.135
6.646,0.045
6.648,0.04
6.65,-0.09
6.652,-0.055
6.654,0.01
6.656,0.065
6.658,0.035
6.66,0.16
6.662,0.155
6.664,0.16
6.666,0.06
6.668,0.02
6.67,-0.095
6.672,-0.11
6.674,-0.07
6.676,-0.03
6.678,0.025
6.68,0.18
6.682,0.195
6.684,0.115
6.686,0.025
6.688,0.025
6.69,-0.07
6.692,-0.03
6.694,0.16
6.696,0.35
6.698,0.495
6.7,0.675
6.702,0.77
6.704,0.71
6.706,0.67
6.708,0.63
6.71,0.485
6.712,0.4
6.714,0.37
6.716,0.4
6.718,0.43
6.72,0.38
6.722,0.28
6.724,0.145
6.726,0.075
6.728,0.04
6.73,0.025
6.732,0.05
6.734,0.075
6.736,0.18
6.738,0.205
6.74,0.19
6.742,0.1
6.744,0.05
6.746,0.02
6.748,-0.03
6.75,-0.02
6.752,0
6.754,0.065
6.756,0.085
6.758,0.165
6.76,0.205
6.762,0.23
6.764,0.09
6.766,-0.02
6.768,-0.11
6.77,-0.105
6.772,-0.045
6.774,0.025
6.776,0.085
6.778,0.115
6.78,0.165
6.782,0.14
6.784,0.06
6.786,0.035
6.788,-0.055
6.79,-0.055
6.792,-0.005
6.794,0.085
6.796,0.14
6.798,0.185
6.8,0.17
6.802,0.175
6.804,0.095
6.806,0.035
6.808,-0.06
6.81,-0.07
6.812,-0.03
6.814,0.055
6.816,0.075
6.818,0.195
6.82,0.205
6.822,0.16
6.824,0.09
6.826,0.085
6.828,0.005
6.83,0.005
6.832,-0.025
6.834,0.04
6.836,0.075
6.838,0.175
6.84,0.15
6.842,0.145
6.844,0.09
6.846,0.085
6.848,-0.01
6.85,0.015
6.852,0.01
6.854,0.08
6.856,0.075
6.858,0.175
6.86,0.195
6.862,0.18
6.864,0.03
6.866,0.03
6.868,-0.04
6.87,-0.055
6.872,-0.015
6.874,0.08
6.876,0.085
6.878,0.19
6.88,0.215
6.882,0.22
6.884,0.175
6.886,0.15
6.888,0.055
6.89,0.05
6.892,0.035
6.894,0.075
6.896,0.13
6.898,0.235
6.9,0.23
6.902,0.18
6.904,0.09
6.906,0.095
6.908,0.03
6.91,0.04
6.912,0.065
6.914,0.135
6.916,0.165
6.918,0.28
6.92,0.295
6.922,0.245
6.924,0.14
6.926,0.135
6.928,0.04
6.93,0.025
6.932,0.09
6.934,0.19
6.936,0.22
6.938,0.315
6.94,0.365
6.942,0.305
6.944,0.225
6.946,0.17
6.948,0.07
6.95,0.075
6.952,0.115
6.954,0.2
6.956,0.2
6.958,0.29
6.96,0.295
6.962,0.19
6.964,0.11
6.966,0.14
6.968,0.065
6.97,0.115
6.972,0.25
6.974,0.305
6.976,0.285
6.978,0.37
6.98,0.415
6.982,0.31
6.984,0.205
6.986,0.17
6.988,0.12
6.99,0.115
6.992,0.175
6.994,0.28
6.996,0.29
6.998,0.355
7,0.365
7.002,0.31
7.004,0.255
7.006,0.155
7.008,0.065
7.01,0.015
7.012,0.005
7.014,0.175
7.016,0.23
7.018,0.29
7.02,0.29
7.022,0.18
7.024,0.075
7.026,0.035
7.028,-0.005
7.03,-0.01
7.032,0.095
7.034,0.175
7.036,0.29
7.038,0.245
7.04,0.245
7.042,0.12
7.044,0.065
7.046,-0.005
7.048,0.015
7.05,0.04
7.052,0.04
7.054,0.13
7.056,0.175
7.058,0.165
7.06,0.19
7.062,0.105
7.064,0.065
7.066,-0.015
7.068,0
7.07,0.015
7.072,0.08
7.074,0.115
7.076,0.19
7.078,0.22
7.08,0.195
7.082,0.07
7.084,0.015
7.086,-0.065
7.088,-0.025
7.09,-0.04
7.092,-0.025
7.094,0.035
7.096,0.115
7.098,0.19
7.1,0.2
7.102,0.06
7.104,0.05
7.106,-0.02
7.108,-0.075
7.11,-0.085
7.112,0.02
7.114,0.09
7.116,0.185
7.118,0.165
7.12,0.18
7.122,0.135
7.124,0.095
7.126,-0.04
7.128,-0.07
7.13,0.015
7.132,0.13
7.134,0.12
7.136,0.175
7.138,0.185
7.14,0.155
7.142,0.09
7.144,0.105
7.146,-0.035
7.148,-0.095
7.15,-0.045
7.152,0.065
7.154,0.135
7.156,0.31
7.158,0.29
7.16,0.14
7.162,0.015
7.164,0.015
7.166,-0.07
7.168,-0.07
7.17,-0.075
7.172,-0.05
7.174,0.05
7.176,0.22
7.178,0.265
7.18,0.17
7.182,0.085
7.184,0.075
7.186,-0.09
7.188,-0.115
7.19,-0.105
7.192,0.015
7.194,0.115
7.196,0.19
7.198,0.205
7.2,0.15
7.202,0.075
7.204,0.085
7.206,-0.055
7.208,-0.06
7.21,-0.005
7.212,0.04
7.214,0.095
7.216,0.175
7.218,0.185
7.22,0.1
7.222,0.06
7.224,0.055
7.226,-0.04
7.228,-0.04
7.23,-0.015
7.232,0.075
7.234,0.105
7.236,0.205
7.238,0.22
7.24,0.115
7.242,0.04
7.244,-0.01
7.246,-0.075
7.248,-0.095
7.25,-0.045
7.252,0.05
7.254,0.11
7.256,0.17
7.258,0.255
7.26,0.125
7.262,-0.03
7.264,-0.005
7.266,-0.14
7.268,-0.135
7.27,-0.015
7.272,0.085
7.274,0.135
7.276,0.225
7.278,0.19
7.28,0.1
7.282,0.035
7.284,-0.02
7.286,-0.05
7.288,-0.095
7.29,-0.03
7.292,0.085
7.294,0.17
7.296,0.195
7.298,0.17
7.3,0.095
7.302,0.025
7.304,-0.01
7.306,-0.055
7.308,-0.095
7.31,-0.035
7.312,0.05
7.314,0.07
7.316,0.17
7.318,0.135
7.32,0.025
7.322,0.055
7.324,-0.025
7.326,-0.115
7.328,-0.125
7.33,0.02
7.332,0.115
7.334,0.15
7.336,0.16
7.338,0.145
7.34,0.06
7.342,-0.025
7.344,-0.095
7.346,-0.11
7.348,-0.11
7.35,0.02
7.352,0.095
7.354,0.19
7.356,0.195
7.358,0.19
7.36,0.085
7.362,0.045
7.364,-0.015
7.366,-0.035
7.368,0.015
7.37,0
7.372,-0.005
7.374,0.1
7.376,0.095
7.378,0.065
7.38,0.015
7.382,-0.04
7.384,-0.1
7.386,0.015
7.388,0.01
7.39,0.085
7.392,0.06
7.394,0.13
7.396,0.135
7.398,0.13
7.4,0.04
7.402,0.01
7.404,-0.115
7.406,-0.1
7.408,-0.055
7.41,0.045
7.412,0.06
7.414,0.13
7.416,0.11
7.418,0.12
7.42,0.035
7.422,0.015
7.424,-0.05
7.426,-0.035
7.428,-0.04
7.43,0.065
7.432,0.055
7.434,0.14
7.436,0.24
7.438,0.215
7.44,0.065
7.442,-0.035
7.444,-0.155
7.446,-0.135
7.448,-0.05
7.45,0.07
7.452,0.105
7.454,0.215
7.456,0.205
7.458,0.125
7.46,0.035
7.462,0.02
7.464,-0.085
7.466,-0.08
7.468,-0.025
7.47,0.075
7.472,0.1
7.474,0.195
7.476,0.175
7.478,0.11
7.48,0.035
7.482,0.03
7.484,-0.025
7.486,-0.035
7.488,0.04
7.49,0.09
7.492,0.08
7.494,0.215
7.496,0.225
7.498,0.18
7.5,0.125
7.502,0.13
7.504,0.025
7.506,-0.015
7.508,0.015
7.51,0.15
7.512,0.175
7.514,0.205
7.516,0.215
7.518,0.145
7.52,0.11
7.522,0.05
7.524,-0.135
7.526,-0.14
7.528,-0.04
7.53,0.03
7.532,0.04
7.534,0.165
7.536,0.19
7.538,0.115
7.54,0.01
7.542,-0.015
7.544,-0.08
7.546,-0.105
7.548,-0.015
7.55,0.08
7.552,0.105
7.554,0.18
7.556,0.185
7.558,0.095
7.56,-0.01
7.562,-0.005
7.564,-0.055
7.566,-0.035
7.568,-0.015
7.57,-0.02
7.572,0.03
7.574,0.18
7.576,0.17
7.578,0.08
7.58,-0.055
7.582,-0.07
7.584,-0.1
7.586,-0.085
7.588,0.08
7.59,0.235
7.592,0.36
7.594,0.48
7.596,0.495
7.598,0.545
7.6,0.525
7.602,0.495
7.604,0.49
7.606,0.475
7.608,0.5
7.61,0.45
7.612,0.48
7.614,0.455
7.616,0.4
7.618,0.235
7.62,0.095
7.622,-0.03
7.624,-0.09
7.626,-0.045
7.628,0.035
7.63,0.08
7.632,0.145
7.634,0.195
7.636,0.21
7.638,0.15
7.64,0.05
7.642,-0.015
7.644,-0.005
7.646,-0.055
7.648,-0.08
7.65,-0.045
7.652,0.16
7.654,0.2
7.656,0.19
7.658,0.06
7.66,0.055
7.662,-0.02
7.664,-0.05
7.666,-0.08
7.668,0.09
7.67,0.085
7.672,0.16
7.674,0.165
7.676,0.175
7.678,0.06
7.68,0.01
7.682,-0.105
7.684,-0.09
7.686,-0.085
7.688,0.015
7.69,0.11
7.692,0.255
7.694,0.235
7.696,0.16
7.698,0.055
7.7,0.01
7.702,-0.1
7.704,-0.065
7.706,-0.06
7.708,0.04
7.71,0.08
7.712,0.18
7.714,0.115
7.716,0.16
7.718,0.06
7.72,0.01
7.722,-0.125
7.724,-0.09
7.726,0.005
7.728,0.07
7.73,0.12
7.732,0.2
7.734,0.255
7.736,0.185
7.738,0.075
7.74,0.02
7.742,-0.09
7.744,-0.07
7.746,-0.03
7.748,0.075
7.75,0.06
7.752,0.185
7.754,0.24
7.756,0.18
7.758,0.06
7.76,0.08
7.762,-0.025
7.764,-0.08
7.766,0.02
7.768,0.115
7.77,0.14
7.772,0.26
7.774,0.235
7.776,0.155
7.778,0.04
7.78,0.02
7.782,-0.075
7.784,-0.085
7.786,0
7.788,0.095
7.79,0.12
7.792,0.25
7.794,0.275
7.796,0.23
7.798,0.15
7.8,0.1
7.802,-0.03
7.804,-0.01
7.806,0.06
7.808,0.14
7.81,0.165
7.812,0.225
7.814,0.19
7.816,0.165
7.818,0.1
7.82,0.075
7.822,-0.02
7.824,-0.005
7.826,0.09
7.828,0.19
7.83,0.205
7.832,0.265
7.834,0.285
7.836,0.19
7.838,0.09
7.84,0.13
7.842,0.04
7.844,0.035
7.846,0.09
7.848,0.245
7.85,0.295
7.852,0.32
7.854,0.32
7.856,0.275
7.858,0.215
7.86,0.17
7.862,0.12
7.864,0.145
7.866,0.11
7.868,0.185
7.87,0.28
7.872,0.325
7.874,0.255
7.876,0.225
7.878,0.22
7.88,0.13
7.882,0.08
7.884,0.06
7.886,0.16
7.888,0.3
7.89,0.365
7.892,0.36
7.894,0.34
7.896,0.215
7.898,0.12
7.9,0.105
7.902,0.085
7.904,0.025
7.906,0.125
7.908,0.23
7.91,0.305
7.912,0.265
7.914,0.225
7.916,0.155
7.918,0.135
7.92,0.08
7.922,0.05
7.924,0
7.926,0.08
7.928,0.09
7.93,0.15
7.932,0.255
7.934,0.19
7.936,0.15
7.938,0.115
7.94,-0.02
7.942,-0.05
7.944,0.015
7.946,0.065
7.948,0.11
7.95,0.205
7.952,0.215
7.954,0.205
7.956,0.14
7.958,0.065
7.96,-0.065
7.962,-0.065
7.964,-0.06
7.966,0.045
7.968,0.085
7.97,0.15
7.972,0.14
7.974,0.125
7.976,0.055
7.978,0.03
7.98,-0.065
7.982,0
7.984,0.005
7.986,0.085
7.988,0.07
7.99,0.19
7.992,0.17
7.994,0.14
7.996,0.055
7.998,-0.04
8,-0.14
8.002,-0.08
8.004,-0.045
8.006,0.005
8.008,0.07
8.01,0.2
8.012,0.125
8.014,0.075
8.016,0.09
8.018,0.03
8.02,-0.09
8.022,-0.04
8.024,-0.035
8.026,0.015
8.028,0.04
8.03,0.175
8.032,0.175
8.034,0.095
8.036,0.025
8.038,0.05
8.04,-0.02
8.042,-0.035
8.044,-0.015
8.046,0.085
8.048,0.1
8.05,0.185
8.052,0.16
8.054,0.125
8.056,0.075
8.058,0.07
8.06,-0.04
8.062,-0.065
8.064,-0.04
8.066,0.045
8.068,0.09
8.07,0.185
8.072,0.16
8.074,0.13
8.076,0.035
8.078,0.03
8.08,-0.145
8.082,-0.11
8.084,0.06
8.086,0.105
8.088,0.09
8.09,0.17
8.092,0.175
8.094,0.13
8.096,0.035
8.098,0.005
8.1,-0.125
8.102,-0.12
8.104,-0.025
8.106,0.055
8.108,0.08
8.11,0.19
8.112,0.195
8.114,0.155
8.116,0.02
8.118,0.01
8.12,-0.02
8.122,-0.04
8.124,-0.015
8.126,0.05
8.128,0.085
8.13,0.165
8.132,0.175
8.134,0.125
8.136,0.045
8.138,0.005
8.14,-0.05
8.142,-0.065
8.144,-0.005
8.146,0.085
8.148,0.14
8.15,0.155
8.152,0.145
8.154,0.1
8.156,0.065
8.158,0.005
8.16,-0.075
8.162,-0.09
8.164,-0.03
8.166,0.03
8.168,0.08
8.17,0.15
8.172,0.145
8.174,0.125
8.176,0.075
8.178,-0.03
8.18,-0.08
8.182,-0.055
8.184,0.025
8.186,0.085
8.188,0.14
8.19,0.155
8.192,0.135
8.194,0.08
8.196,0.055
8.198,-0.08
8.2,-0.115
8.202,-0.065
8.204,0.03
8.206,0.115
8.208,0.17
8.21,0.155
8.212,0.14
8.214,0.015
8.216,-0.01
8.218,-0.065
8.22,-0.055
8.222,-0.09
8.224,0.005
8.226,0.06
8.228,0.15
8.23,0.2
8.232,0.135
8.234,0.075
8.236,0.02
8.238,-0.065
8.24,-0.08
8.242,-0.085
8.244,0.01
8.246,0.025
8.248,0.185
8.25,0.155
8.252,0.14
8.254,0.095
8.256,0.035
8.258,-0.095
8.26,-0.075
8.262,-0.01
8.264,0.065
8.266,0.085
8.268,0.2
8.27,0.175
8.272,0.13
8.274,0.015
8.276,-0.01
8.278,-0.12
8.28,-0.05
8.282,0.05
8.284,0.17
8.286,0.165
8.288,0.245
8.29,0.19
8.292,0.14
8.294,0.085
8.296,0.085
8.298,-0.055
8.3,-0.01
8.302,0.05
8.304,0.135
8.306,0.145
8.308,0.215
8.31,0.215
8.312,0.18
8.314,0.1
8.316,0.07
8.318,-0.025
8.32,-0.035
8.322,0.02
8.324,0.06
8.326,0.02
8.328,0.145
8.33,0.14
8.332,0.085
8.334,0.025
8.336,0.045
8.338,-0.05
8.34,-0.075
8.342,-0.035
8.344,0.025
8.346,0.05
8.348,0.17
8.35,0.18
8.352,0.085
8.354,-0.035
8.356,-0.03
8.358,-0.06
8.36,-0.065
8.362,-0.045
8.364,0.065
8.366,0.065
8.368,0.175
8.37,0.205
8.372,0.14
8.374,-0.005
8.376,-0.055
8.378,-0.105
8.38,-0.1
8.382,-0.01
8.384,0.045
8.386,0.05
8.388,0.17
8.39,0.24
8.392,0.27
8.394,0.315
8.396,0.3
8.398,0.185
8.4,0.195
8.402,0.35
8.404,0.535
8.406,0.665
8.408,0.685
8.41,0.615
8.412,0.465
8.414,0.285
8.416,0.205
8.418,0.075
8.42,0.02
8.422,-0.025
8.424,0.045
8.426,0.085
8.428,0.15
8.43,0.19
8.432,0.175
8.434,0.055
8.436,-0.03
8.438,-0.06
8.44,-0.07
8.442,-0.015
8.444,0.04
8.446,0.085
8.448,0.15
8.45,0.165
8.452,0.08
8.454,0.085
8.456,0.015
8.458,-0.05
8.46,-0.045
8.462,0.03
8.464,0.105
8.466,0.175
8.468,0.175
8.47,0.14
8.472,0.05
8.474,-0.03
8.476,-0.105
8.478,-0.12
8.48,-0.1
8.482,0.01
8.484,0.105
8.486,0.17
8.488,0.17
8.49,0.155
8.492,0.05
8.494,-0.025
8.496,-0.12
8.498,-0.065
8.5,-0.065
8.502,-0.015
8.504,0.07
8.506,0.155
8.508,0.18
8.51,0.17
8.512,0.075
8.514,0.015
8.516,-0.075
8.518,-0.08
8.52,-0.025
8.522,0.08
8.524,0.115
8.526,0.205
8.528,0.195
8.53,0.14
8.532,0.065
8.534,-0.01
8.536,-0.125
8.538,-0.065
8.54,-0.06
8.542,0.065
8.544,0.095
8.546,0.19
8.548,0.175
8.55,0.155
8.552,0.08
8.554,0.08
8.556,0
8.558,0.01
8.56,0.025
8.562,0.05
8.564,0.04
8.566,0.17
8.568,0.18
8.57,0.175
8.572,0.08
8.574,0.035
8.576,-0.08
8.578,-0.095
8.58,-0.02
8.582,0.07
8.584,0.13
8.586,0.235
8.588,0.285
8.59,0.225
8.592,0.15
8.594,0.1
8.596,-0.02
8.598,-0.045
8.6,-0.025
8.602,0.14
8.604,0.145
8.606,0.23
8.608,0.205
8.61,0.13
8.612,0.045
8.614,0.05
8.616,-0.04
8.618,-0.03
8.62,0.025
8.622,0.115
8.624,0.155
8.626,0.265
8.628,0.26
8.63,0.225
8.632,0.15
8.634,0.125
8.636,0.03
8.638,0.04
8.64,0.11
8.642,0.23
8.644,0.285
8.646,0.325
8.648,0.3
8.65,0.265
8.652,0.135
8.654,0.135
8.656,0.07
8.658,0.06
8.66,0.12
8.662,0.21
8.664,0.25
8.666,0.33
8.668,0.365
8.67,0.32
8.672,0.245
8.674,0.26
8.676,0.145
8.678,0.105
8.68,0.135
8.682,0.21
8.684,0.245
8.686,0.33
8.688,0.31
8.69,0.285
8.692,0.16
8.694,0.135
8.696,0.075
8.698,0.08
8.7,0.135
8.702,0.22
8.704,0.24
8.706,0.32
8.708,0.285
8.71,0.2
8.712,0.11
8.714,0.07
8.716,0.025
8.718,0.02
8.72,0.095
8.722,0.175
8.724,0.185
8.726,0.265
8.728,0.265
8.73,0.14
8.732,0.05
8.734,-0.015
8.736,-0.035
8.738,-0.05
8.74,0.01
8.742,0.085
8.744,0.135
8.746,0.18
8.748,0.14
8.75,0.065
8.752,0.005
8.754,-0.055
8.756,-0.06
8.758,-0.035
8.76,0.06
8.762,0.11
8.764,0.195
8.766,0.16
8.768,0.145
8.77,0.11
8.772,0.015
8.774,-0.08
8.776,-0.105
8.778,-0.09
8.78,-0.01
8.782,0.055
8.784,0.13
8.786,0.135
8.788,0.155
8.79,0.02
8.792,0
8.794,-0.115
8.796,-0.12
8.798,-0.105
8.8,-0.015
8.802,0.05
8.804,0.19
8.806,0.185
8.808,0.16
8.81,0.11
8.812,0.065
8.814,-0.125
8.816,-0.105
8.818,-0.095
8.82,-0.01
8.822,0.05
8.824,0.155
8.826,0.155
8.828,0.125
8.83,0.045
8.832,-0.01
8.834,-0.12
8.836,-0.095
8.838,-0.11
8.84,-0.04
8.842,0.05
8.844,0.22
8.846,0.28
8.848,0.215
8.85,0.08
8.852,-0.025
8.854,-0.135
8.856,-0.08
8.858,-0.02
8.86,0.01
8.862,0.045
8.864,0.17
8.866,0.165
8.868,0.11
8.87,0.03
8.872,-0.02
8.874,-0.185
8.876,-0.115
8.878,-0.07
8.88,0.01
8.882,0.05
8.884,0.235
8.886,0.29
8.888,0.225
8.89,0.12
8.892,0.07
8.894,-0.07
8.896,-0.05
8.898,-0.05
8.9,0.02
8.902,0.07
8.904,0.185
8.906,0.195
8.908,0.12
8.91,0.005
8.912,-0.035
8.914,-0.175
8.916,-0.22
8.918,-0.16
8.92,-0.01
8.922,0.09
8.924,0.16
8.926,0.155
8.928,0.145
8.93,0.065
8.932,0.055
8.934,-0.04
8.936,-0.03
8.938,-0.005
8.94,0.065
8.942,0.085
8.944,0.18
8.946,0.16
8.948,0.055
8.95,-0.07
8.952,-0.135
8.954,-0.145
8.956,-0.085
8.958,0.035
8.96,0.1
8.962,0.115
8.964,0.185
8.966,0.175
8.968,0.13
8.97,0.01
8.972,-0.005
8.974,-0.085
8.976,-0.08
8.978,-0.02
8.98,0.035
8.982,0.08
8.984,0.145
8.986,0.145
8.988,0.095
8.99,0.01
8.992,-0.085
8.994,-0.165
8.996,-0.13
8.998,-0.015
9,0.04
9.002,0.09
9.004,0.09
9.006,0.11
9.008,0.125
9.01,0.005
9.012,-0.09
9.014,-0.08
9.016,0.01
9.018,-0.01
9.02,0.035
9.022,0.06
9.024,0.085
9.026,0.085
9.028,0.095
9.03,0.075
9.032,-0.065
9.034,-0.145
9.036,-0.095
9.038,0.02
9.04,0.13
9.042,0.165
9.044,0.115
9.046,0.125
9.048,0.08
9.05,0.025
9.052,-0.065
9.054,-0.08
9.056,-0.105
9.058,-0.08
9.06,0.025
9.062,0.17
9.064,0.18
9.066,0.15
9.068,0.08
9.07,0.01
9.072,-0.105
9.074,-0.09
9.076,-0.06
9.078,0.035
9.08,0.11
9.082,0.205
9.084,0.175
9.086,0.15
9.088,0.07
9.09,0.01
9.092,-0.115
9.094,-0.1
9.096,-0.12
9.098,-0.03
9.1,0.02
9.102,0.185
9.104,0.24
9.106,0.2
9.108,0.095
9.11,0.05
9.112,-0.12
9.114,-0.09
9.116,-0.01
9.118,0.075
9.12,0.115
9.122,0.24
9.124,0.235
9.126,0.2
9.128,0.08
9.13,0.01
9.132,-0.105
9.134,-0.115
9.136,0.02
9.138,0.1
9.14,0.09
9.142,0.205
9.144,0.2
9.146,0.165
9.148,0.105
9.15,0.075
9.152,-0.08
9.154,-0.145
9.156,-0.105
9.158,0.04
9.16,0.055
9.162,0.19
9.164,0.2
9.166,0.12
9.168,0.025
9.17,-0.005
9.172,-0.085
9.174,-0.075
9.176,-0.055
9.178,0.045
9.18,0.11
9.182,0.195
9.184,0.2
9.186,0.13
9.188,0.01
9.19,0
9.192,-0.115
9.194,-0.1
9.196,-0.05
9.198,0
9.2,-0.02
9.202,0.135
9.204,0.16
9.206,0.065
9.208,0.01
9.21,0
9.212,-0.105
9.214,-0.12
9.216,-0.07
9.218,0.02
9.22,0.035
9.222,0.12
9.224,0.135
9.226,0.155
9.228,0.285
9.23,0.38
9.232,0.37
9.234,0.435
9.236,0.53
9.238,0.685
9.24,0.695
9.242,0.735
9.244,0.635
9.246,0.455
9.248,0.28
9.25,0.3
9.252,0.17
9.254,0.05
9.256,0.085
9.258,0.1
9.26,0.105
9.262,0.235
9.264,0.24
9.266,0.075
9.268,-0.045
9.27,-0.025
9.272,-0.07
9.274,-0.055
9.276,0
9.278,0.06
9.28,0.1
9.282,0.2
9.284,0.16
9.286,0.065
9.288,-0.01
9.29,-0.05
9.292,-0.125
9.294,-0.105
9.296,-0.075
9.298,-0.025
9.3,0.025
9.302,0.125
9.304,0.23
9.306,0.1
9.308,-0.02
9.31,-0.065
9.312,-0.09
9.314,-0.06
9.316,0.06
9.318,0.115
9.32,0.175
9.322,0.18
9.324,0.135
9.326,0.02
9.328,0.005
9.33,-0.08
9.332,-0.105
9.334,-0.12
9.336,-0.045
9.338,0.005
9.34,0.14
9.342,0.18
9.344,0.185
9.346,0.08
9.348,0.04
9.35,-0.01
9.352,-0.01
9.354,-0.015
9.356,0.005
9.358,0.055
9.36,0.135
9.362,0.15
9.364,0.13
9.366,0.04
9.368,-0.005
9.37,-0.1
9.372,-0.09
9.374,-0.06
9.376,0.02
9.378,0.055
9.38,0.165
9.382,0.165
9.384,0.145
9.386,0.07
9.388,0.03
9.39,-0.095
9.392,-0.08
9.394,-0.05
9.396,0.055
9.398,0.11
9.4,0.245
9.402,0.235
9.404,0.17
9.406,0.035
9.408,-0.04
9.41,-0.085
9.412,-0.045
9.414,-0.07
9.416,-0.02
9.418,0.03
9.42,0.21
9.422,0.225
9.424,0.155
9.426,0.085
9.428,0.04
9.43,-0.045
9.432,-0.035
9.434,0.005
9.436,0.1
9.438,0.095
9.44,0.18
9.442,0.155
9.444,0.16
9.446,0.145
9.448,0.075
9.45,-0.06
9.452,-0.06
9.454,-0.03
9.456,0.06
9.458,0.16
9.46,0.29
9.462,0.28
9.464,0.23
9.466,0.11
9.468,0.075
9.47,0.01
9.472,0.035
9.474,0.125
9.476,0.14
9.478,0.145
9.48,0.29
9.482,0.305
9.484,0.25
9.486,0.19
9.488,0.15
9.49,0.075
9.492,0.15
9.494,0.16
9.496,0.155
9.498,0.155
9.5,0.3
9.502,0.32
9.504,0.25
9.506,0.165
9.508,0.13
9.51,0.04
9.512,0.06
9.514,0.1
9.516,0.195
9.518,0.24
9.52,0.36
9.522,0.355
9.524,0.265
9.526,0.14
9.528,0.105
9.53,0.035
9.532,0.045
9.534,0.115
9.536,0.185
9.538,0.19
9.54,0.29
9.542,0.305
9.544,0.24
9.546,0.175
9.548,0.075
9.55,-0.005
9.552,0.01
9.554,0.125
9.556,0.205
9.558,0.165
9.56,0.21
9.562,0.19
9.564,0.13
9.566,0.045
9.568,0.025
9.57,-0.045
9.572,-0.055
9.574,0.025
9.576,0.145
9.578,0.225
9.58,0.28
9.582,0.23
9.584,0.125
9.586,-0.015
9.588,-0.085
9.59,-0.085
9.592,-0.075
9.594,-0.015
9.596,0.045
9.598,0.12
9.6,0.225
9.602,0.18
9.604,0.04
9.606,-0.015
9.608,-0.125
9.61,-0.13
9.612,-0.115
9.614,-0.035
9.616,0.035
9.618,0.145
9.62,0.185
9.622,0.15
9.624,0.09
9.626,0.035
9.628,-0.095
9.63,-0.105
9.632,-0.105
9.634,-0.05
9.636,0.025
9.638,0.125
9.64,0.145
9.642,0.165
9.644,0.075
9.646,0.01
9.648,-0.09
9.65,-0.085
9.652,-0.045
9.654,0.045
9.656,0.08
9.658,0.18
9.66,0.185
9.662,0.14
9.664,0.09
9.666,0.04
9.668,-0.145
9.67,-0.105
9.672,-0.075
9.674,0.03
9.676,0.09
9.678,0.195
9.68,0.16
9.682,0.12
9.684,0.07
9.686,0
9.688,-0.14
9.69,-0.125
9.692,-0.065
9.694,-0.005
9.696,0.045
9.698,0.145
9.7,0.1
9.702,0.085
9.704,0.005
9.706,0.03
9.708,-0.055
9.71,-0.085
9.712,-0.035
9.714,0.06
9.716,0.02
9.718,0.18
9.72,0.17
9.722,0.095
9.724,0.015
9.726,0.005
9.728,-0.06
9.73,-0.07
9.732,-0.05
9.734,-0.015
9.736,0.04
9.738,0.22
9.74,0.26
9.742,0.145
9.744,0
9.746,-0.035
9.748,-0.115
9.75,-0.075
9.752,-0.045
9.754,0.05
9.756,0.06
9.758,0.22
9.76,0.23
9.762,0.135
9.764,0.005
9.766,-0.005
9.768,-0.14
9.77,-0.145
9.772,-0.095
9.774,0.055
9.776,0.09
9.778,0.135
9.78,0.135
9.782,0.08
9.784,0.025
9.786,0.01
9.788,-0.145
9.79,-0.145
9.792,-0.04
9.794,0.035
9.796,0.06
9.798,0.175
9.8,0.16
9.802,0.135
9.804,0.015
9.806,-0.01
9.808,-0.11
9.81,-0.085
9.812,-0.01
9.814,0.065
9.816,0.095
9.818,0.185
9.82,0.165
9.822,0.065
9.824,-0.06
9.826,-0.13
9.828,-0.11
9.83,-0.09
9.832,-0.015
9.834,0.08
9.836,0.185
9.838,0.22
9.84,0.175
9.842,0.095
9.844,-0.02
9.846,-0.085
9.848,-0.12
9.85,-0.1
9.852,-0.065
9.854,0.035
9.856,0.135
9.858,0.155
9.86,0.14
9.862,0.05
9.864,-0.01
9.866,-0.05
9.868,-0.11
9.87,-0.09
9.872,0
9.874,0.095
9.876,0.185
9.878,0.18
9.88,0.135
9.882,0.05
9.884,-0.015
9.886,-0.09
9.888,-0.125
9.89,-0.115
9.892,-0.005
9.894,0.05
9.896,0.075
9.898,0.09
9.9,0.15
9.902,0.1
9.904,0.015
9.906,-0.035
9.908,-0.075
9.91,-0.05
9.912,0.02
9.914,0.045
9.916,0.18
9.918,0.225
9.92,0.185
9.922,0.08
9.924,0
9.926,-0.12
9.928,-0.095
9.93,-0.08
9.932,-0.025
9.934,0.005
9.936,0.18
9.938,0.185
9.94,0.165
9.942,0.045
9.944,-0.035
9.946,-0.15
9.948,-0.15
9.95,-0.105
9.952,-0.005
9.954,0.015
9.956,0.13
9.958,0.095
9.96,0.135
9.962,0.08
9.964,0.06
9.966,-0.09
9.968,-0.105
9.97,-0.08
9.972,0.005
9.974,0.02
9.976,0.18
9.978,0.19
9.98,0.105
9.982,0.01
9.984,-0.04
9.986,-0.175
9.988,-0.15
9.99,-0.05
9.992,0.02
9.994,0.07
9.996,0.165
9.998,0.16
