0,-0.27
0.002,-0.165
0.004,-0.13
0.006,-0.16
0.008,-0.155
0.01,-0.135
0.012,-0.245
0.014,-0.335
0.016,-0.355
0.018,-0.31
0.02,-0.285
0.022,-0.15
0.024,-0.15
0.026,-0.17
0.028,-0.185
0.03,-0.32
0.032,-0.36
0.034,-0.43
0.036,-0.41
0.038,-0.415
0.04,-0.28
0.042,-0.16
0.044,-0.1
0.046,-0.13
0.048,-0.195
0.05,-0.295
0.052,-0.41
0.054,-0.495
0.056,-0.525
0.058,-0.485
0.06,-0.275
0.062,-0.23
0.064,-0.175
0.066,-0.215
0.068,-0.24
0.07,-0.27
0.072,-0.305
0.074,-0.41
0.076,-0.525
0.078,-0.39
0.08,-0.3
0.082,-0.27
0.084,-0.2
0.086,-0.115
0.088,-0.115
0.09,-0.15
0.092,-0.265
0.094,-0.39
0.096,-0.4
0.098,-0.315
0.1,-0.215
0.102,-0.23
0.104,-0.15
0.106,-0.135
0.108,-0.21
0.11,-0.135
0.112,-0.205
0.114,-0.27
0.116,-0.235
0.118,-0.18
0.12,-0.105
0.122,0.005
0.124,-0.015
0.126,0.12
0.128,0.04
0.13,-0.095
0.132,-0.085
0.134,-0.215
0.136,-0.31
0.138,-0.29
0.14,-0.325
0.142,-0.405
0.144,-0.295
0.146,-0.305
0.148,-0.315
0.15,-0.345
0.152,-0.36
0.154,-0.41
0.156,-0.45
0.158,-0.38
0.16,-0.3
0.162,-0.275
0.164,-0.165
0.166,-0.185
0.168,-0.31
0.17,-0.3
0.172,-0.27
0.174,-0.405
0.176,-0.425
0.178,-0.4
0.18,-0.26
0.182,-0.205
0.184,-0.125
0.186,-0.175
0.188,-0.27
0.19,-0.31
0.192,-0.325
0.194,-0.42
0.196,-0.445
0.198,-0.335
0.2,-0.25
0.202,-0.25
0.204,-0.13
0.206,-0.19
0.208,-0.285
0.21,-0.3
0.212,-0.305
0.214,-0.43
0.216,-0.47
0.218,-0.36
0.22,-0.23
0.222,-0.25
0.224,-0.13
0.226,-0.145
0.228,-0.23
0.23,-0.355
0.232,-0.325
0.234,-0.365
0.236,-0.34
0.238,-0.295
0.24,-0.23
0.242,-0.245
0.244,-0.175
0.246,-0.155
0.248,-0.19
0.25,-0.295
0.252,-0.35
0.254,-0.38
0.256,-0.36
0.258,-0.295
0.26,-0.275
0.262,-0.195
0.264,-0.115
0.266,-0.155
0.268,-0.23
0.27,-0.205
0.272,-0.275
0.274,-0.375
0.276,-0.35
0.278,-0.275
0.28,-0.19
0.282,-0.135
0.284,-0.065
0.286,-0.205
0.288,-0.185
0.29,-0.13
0.292,-0.255
0.294,-0.305
0.296,-0.28
0.298,-0.235
0.3,-0.19
0.302,-0.205
0.304,-0.055
0.306,-0.06
0.308,-0.15
0.31,-0.23
0.312,-0.26
0.314,-0.34
0.316,-0.26
0.318,-0.17
0.32,-0.1
0.322,-0.06
0.324,-0.025
0.326,-0.085
0.328,-0.09
0.33,-0.185
0.332,-0.28
0.334,-0.335
0.336,-0.2
0.338,-0.085
0.34,-0.03
0.342,0.025
0.344,0.065
0.346,0.02
0.348,-0.03
0.35,-0.115
0.352,-0.2
0.354,-0.135
0.356,-0.065
0.358,-0.005
0.36,0.03
0.362,0.005
0.364,0.02
0.366,0.035
0.368,-0.005
0.37,-0.04
0.372,-0.155
0.374,-0.165
0.376,-0.14
0.378,-0.08
0.38,0.005
0.382,0.07
0.384,0.04
0.386,-0.02
0.388,-0.1
0.39,-0.065
0.392,-0.135
0.394,-0.195
0.396,-0.195
0.398,-0.125
0.4,-0.08
0.402,-0.035
0.404,-0.105
0.406,-0.075
0.408,-0.215
0.41,-0.195
0.412,-0.37
0.414,-0.285
0.416,-0.28
0.418,-0.205
0.42,-0.175
0.422,-0.13
0.424,-0.135
0.426,-0.175
0.428,-0.25
0.43,-0.3
0.432,-0.43
0.434,-0.375
0.436,-0.335
0.438,-0.27
0.44,-0.26
0.442,-0.205
0.444,-0.2
0.446,-0.27
0.448,-0.31
0.45,-0.255
0.452,-0.375
0.454,-0.425
0.456,-0.375
0.458,-0.33
0.46,-0.23
0.462,-0.125
0.464,-0.17
0.466,-0.205
0.468,-0.3
0.47,-0.345
0.472,-0.485
0.474,-0.44
0.476,-0.48
0.478,-0.335
0.48,-0.3
0.482,-0.195
0.484,-0.19
0.486,-0.245
0.488,-0.285
0.49,-0.305
0.492,-0.435
0.494,-0.42
0.496,-0.35
0.498,-0.25
0.5,-0.265
0.502,-0.2
0.504,-0.215
0.506,-0.36
0.508,-0.435
0.51,-0.37
0.512,-0.405
0.514,-0.42
0.516,-0.255
0.518,-0.22
0.52,-0.235
0.522,-0.225
0.524,-0.275
0.526,-0.3
0.528,-0.34
0.53,-0.335
0.532,-0.44
0.534,-0.38
0.536,-0.375
0.538,-0.29
0.54,-0.265
0.542,-0.205
0.544,-0.175
0.546,-0.24
0.548,-0.35
0.55,-0.395
0.552,-0.475
0.554,-0.495
0.556,-0.345
0.558,-0.255
0.56,-0.23
0.562,-0.115
0.564,-0.185
0.566,-0.315
0.568,-0.425
0.57,-0.385
0.572,-0.365
0.574,-0.315
0.576,-0.265
0.578,-0.195
0.58,-0.22
0.582,-0.215
0.584,-0.26
0.586,-0.315
0.588,-0.4
0.59,-0.39
0.592,-0.43
0.594,-0.355
0.596,-0.265
0.598,-0.225
0.6,-0.145
0.602,-0.115
0.604,-0.16
0.606,-0.245
0.608,-0.355
0.61,-0.425
0.612,-0.435
0.614,-0.415
0.616,-0.35
0.618,-0.23
0.62,-0.125
0.622,-0.115
0.624,-0.285
0.626,-0.3
0.628,-0.31
0.63,-0.4
0.632,-0.415
0.634,-0.375
0.636,-0.305
0.638,-0.195
0.64,-0.14
0.642,-0.145
0.644,-0.18
0.646,-0.26
0.648,-0.285
0.65,-0.41
0.652,-0.435
0.654,-0.525
0.656,-0.46
0.658,-0.28
0.66,-0.17
0.662,-0.125
0.664,-0.16
0.666,-0.255
0.668,-0.275
0.67,-0.41
0.672,-0.4
0.674,-0.34
0.676,-0.27
0.678,-0.225
0.68,-0.195
0.682,-0.11
0.684,-0.24
0.686,-0.295
0.688,-0.365
0.69,-0.485
0.692,-0.42
0.694,-0.295
0.696,-0.28
0.698,-0.24
0.7,-0.105
0.702,-0.1
0.704,-0.205
0.706,-0.335
0.708,-0.435
0.71,-0.455
0.712,-0.46
0.714,-0.39
0.716,-0.26
0.718,-0.225
0.72,-0.1
0.722,-0.21
0.724,-0.24
0.726,-0.275
0.728,-0.325
0.73,-0.41
0.732,-0.42
0.734,-0.405
0.736,-0.295
0.738,-0.235
0.74,-0.185
0.742,-0.17
0.744,-0.225
0.746,-0.305
0.748,-0.325
0.75,-0.39
0.752,-0.365
0.754,-0.335
0.756,-0.275
0.758,-0.23
0.76,-0.14
0.762,-0.145
0.764,-0.235
0.766,-0.345
0.768,-0.3
0.77,-0.44
0.772,-0.415
0.774,-0.365
0.776,-0.185
0.778,-0.21
0.78,-0.185
0.782,-0.16
0.784,-0.195
0.786,-0.325
0.788,-0.315
0.79,-0.33
0.792,-0.335
0.794,-0.315
0.796,-0.26
0.798,-0.195
0.8,-0.185
0.802,-0.17
0.804,-0.225
0.806,-0.285
0.808,-0.3
0.81,-0.385
0.812,-0.4
0.814,-0.265
0.816,-0.18
0.818,-0.185
0.82,-0.085
0.822,-0.115
0.824,-0.265
0.826,-0.34
0.828,-0.35
0.83,-0.36
0.832,-0.335
0.834,-0.285
0.836,-0.31
0.838,-0.29
0.84,-0.19
0.842,-0.17
0.844,-0.285
0.846,-0.355
0.848,-0.365
0.85,-0.49
0.852,-0.485
0.854,-0.345
0.856,-0.29
0.858,-0.195
0.86,-0.21
0.862,-0.16
0.864,-0.23
0.866,-0.325
0.868,-0.39
0.87,-0.39
0.872,-0.355
0.874,-0.255
0.876,-0.14
0.878,-0.21
0.88,-0.195
0.882,-0.25
0.884,-0.295
0.886,-0.36
0.888,-0.435
0.89,-0.4
0.892,-0.27
0.894,-0.16
0.896,-0.125
0.898,-0.065
0.9,-0.085
0.902,-0.195
0.904,-0.25
0.906,-0.32
0.908,-0.35
0.91,-0.375
0.912,-0.285
0.914,-0.1
0.916,0.055
0.918,0.11
0.92,0.125
0.922,0.1
0.924,0.105
0.926,0.1
0.928,0.035
0.93,0.005
0.932,-0.05
0.934,-0.065
0.936,0.055
0.938,0.11
0.94,-0.05
0.942,-0.155
0.944,-0.335
0.946,-0.445
0.948,-0.495
0.95,-0.42
0.952,-0.38
0.954,-0.315
0.956,-0.24
0.958,-0.1
0.96,-0.12
0.962,-0.165
0.964,-0.175
0.966,-0.225
0.968,-0.31
0.97,-0.345
0.972,-0.34
0.974,-0.215
0.976,-0.24
0.978,-0.215
0.98,-0.19
0.982,-0.185
0.984,-0.28
0.986,-0.335
0.988,-0.34
0.99,-0.37
0.992,-0.315
0.994,-0.255
0.996,-0.26
0.998,-0.22
1,-0.195
1.002,-0.205
1.004,-0.36
1.006,-0.33
1.008,-0.43
1.01,-0.39
1.012,-0.385
1.014,-0.31
1.016,-0.225
1.018,-0.095
1.02,-0.1
1.022,-0.155
1.024,-0.245
1.026,-0.265
1.028,-0.41
1.03,-0.495
1.032,-0.36
1.034,-0.27
1.036,-0.26
1.038,-0.165
1.04,-0.24
1.042,-0.28
1.044,-0.32
1.046,-0.32
1.048,-0.375
1.05,-0.42
1.052,-0.27
1.054,-0.16
1.056,-0.175
1.058,-0.12
1.06,-0.15
1.062,-0.15
1.064,-0.275
1.066,-0.27
1.068,-0.39
1.07,-0.415
1.072,-0.335
1.074,-0.275
1.076,-0.205
1.078,-0.105
1.08,-0.115
1.082,-0.19
1.084,-0.255
1.086,-0.3
1.088,-0.32
1.09,-0.265
1.092,-0.235
1.094,-0.165
1.096,-0.185
1.098,-0.135
1.1,-0.05
1.102,-0.05
1.104,-0.19
1.106,-0.2
1.108,-0.23
1.11,-0.285
1.112,-0.27
1.114,-0.17
1.116,-0.095
1.118,-0.005
1.12,-0.04
1.122,-0.055
1.124,-0.135
1.126,-0.175
1.128,-0.16
1.13,-0.17
1.132,-0.115
1.134,-0.03
1.136,0.035
1.138,0.145
1.14,0.17
1.142,0.04
1.144,-0.1
1.146,-0.105
1.148,-0.12
1.15,-0.09
1.152,-0.06
1.154,0.06
1.156,0.11
1.158,0.22
1.16,0.195
1.162,0.07
1.164,-0.065
1.166,-0.105
1.168,-0.16
1.17,-0.035
1.172,0.06
1.174,0.16
1.176,0.17
1.178,0.26
1.18,0.265
1.182,0.135
1.184,0.02
1.186,-0.035
1.188,-0.12
1.19,-0.125
1.192,0.005
1.194,0.095
1.196,0.17
1.198,0.135
1.2,0.115
1.202,-0.025
1.204,-0.11
1.206,-0.17
1.208,-0.185
1.21,-0.21
1.212,-0.165
1.214,-0.085
1.216,0.02
1.218,-0.02
1.22,-0.065
1.222,-0.125
1.224,-0.23
1.226,-0.27
1.228,-0.26
1.23,-0.225
1.232,-0.235
1.234,-0.175
1.236,-0.13
1.238,-0.17
1.24,-0.215
1.242,-0.23
1.244,-0.335
1.246,-0.425
1.248,-0.38
1.25,-0.36
1.252,-0.235
1.254,-0.225
1.256,-0.08
1.258,-0.15
1.26,-0.28
1.262,-0.35
1.264,-0.345
1.266,-0.49
1.268,-0.46
1.27,-0.395
1.272,-0.225
1.274,-0.215
1.276,-0.105
1.278,-0.14
1.28,-0.235
1.282,-0.275
1.284,-0.335
1.286,-0.465
1.288,-0.44
1.29,-0.405
1.292,-0.275
1.294,-0.27
1.296,-0.19
1.298,-0.2
1.3,-0.255
1.302,-0.335
1.304,-0.35
1.306,-0.415
1.308,-0.445
1.31,-0.385
1.312,-0.235
1.314,-0.235
1.316,-0.185
1.318,-0.255
1.32,-0.2
1.322,-0.345
1.324,-0.325
1.326,-0.34
1.328,-0.355
1.33,-0.285
1.332,-0.275
1.334,-0.24
1.336,-0.17
1.338,-0.175
1.34,-0.235
1.342,-0.34
1.344,-0.345
1.346,-0.42
1.348,-0.41
1.35,-0.345
1.352,-0.2
1.354,-0.17
1.356,-0.14
1.358,-0.175
1.36,-0.165
1.362,-0.22
1.364,-0.265
1.366,-0.37
1.368,-0.385
1.37,-0.325
1.372,-0.26
1.374,-0.2
1.376,-0.025
1.378,-0.055
1.38,-0.155
1.382,-0.28
1.384,-0.265
1.386,-0.325
1.388,-0.31
1.39,-0.375
1.392,-0.32
1.394,-0.195
1.396,-0.11
1.398,-0.075
1.4,-0.2
1.402,-0.295
1.404,-0.275
1.406,-0.33
1.408,-0.285
1.41,-0.205
1.412,-0.155
1.414,-0.125
1.416,-0.025
1.418,-0.05
1.42,-0.155
1.422,-0.235
1.424,-0.22
1.426,-0.3
1.428,-0.33
1.43,-0.255
1.432,-0.18
1.434,-0.14
1.436,-0.095
1.438,-0.085
1.44,-0.19
1.442,-0.315
1.444,-0.32
1.446,-0.355
1.448,-0.355
1.45,-0.32
1.452,-0.2
1.454,-0.135
1.456,-0.16
1.458,-0.145
1.46,-0.21
1.462,-0.295
1.464,-0.35
1.466,-0.365
1.468,-0.345
1.47,-0.28
1.472,-0.19
1.474,-0.12
1.476,-0.075
1.478,-0.12
1.48,-0.205
1.482,-0.3
1.484,-0.37
1.486,-0.37
1.488,-0.36
1.49,-0.33
1.492,-0.28
1.494,-0.095
1.496,-0.115
1.498,-0.205
1.5,-0.25
1.502,-0.29
1.504,-0.36
1.506,-0.285
1.508,-0.33
1.51,-0.265
1.512,-0.145
1.514,-0.085
1.516,-0.1
1.518,-0.15
1.52,-0.225
1.522,-0.3
1.524,-0.375
1.526,-0.365
1.528,-0.325
1.53,-0.2
1.532,-0.115
1.534,-0.145
1.536,-0.08
1.538,-0.08
1.54,-0.19
1.542,-0.29
1.544,-0.355
1.546,-0.29
1.548,-0.225
1.55,-0.19
1.552,-0.185
1.554,-0.05
1.556,-0.06
1.558,-0.17
1.56,-0.225
1.562,-0.3
1.564,-0.315
1.566,-0.275
1.568,-0.285
1.57,-0.23
1.572,-0.195
1.574,-0.17
1.576,-0.14
1.578,-0.23
1.58,-0.185
1.582,-0.25
1.584,-0.335
1.586,-0.275
1.588,-0.235
1.59,-0.21
1.592,-0.24
1.594,-0.14
1.596,-0.16
1.598,-0.16
1.6,-0.235
1.602,-0.235
1.604,-0.295
1.606,-0.28
1.608,-0.295
1.61,-0.215
1.612,-0.175
1.614,-0.125
1.616,-0.125
1.618,-0.165
1.62,-0.24
1.622,-0.285
1.624,-0.315
1.626,-0.295
1.628,-0.235
1.63,-0.14
1.632,-0.13
1.634,0.02
1.636,0.02
1.638,-0.085
1.64,-0.225
1.642,-0.26
1.644,-0.32
1.646,-0.27
1.648,-0.19
1.65,-0.01
1.652,0.13
1.654,0.13
1.656,0.1
1.658,0.02
1.66,-0.075
1.662,-0.02
1.664,-0.085
1.666,-0.095
1.668,-0.085
1.67,-0.025
1.672,-0.05
1.674,0.01
1.676,-0.07
1.678,-0.255
1.68,-0.37
1.682,-0.325
1.684,-0.4
1.686,-0.405
1.688,-0.295
1.69,-0.15
1.692,-0.155
1.694,-0.145
1.696,-0.115
1.698,-0.21
1.7,-0.275
1.702,-0.3
1.704,-0.33
1.706,-0.33
1.708,-0.22
1.71,-0.185
1.712,-0.17
1.714,-0.08
1.716,-0.105
1.718,-0.195
1.72,-0.325
1.722,-0.265
1.724,-0.285
1.726,-0.225
1.728,-0.21
1.73,-0.17
1.732,-0.1
1.734,-0.135
1.736,-0.135
1.738,-0.23
1.74,-0.275
1.742,-0.325
1.744,-0.39
1.746,-0.36
1.748,-0.26
1.75,-0.15
1.752,-0.07
1.754,-0.065
1.756,-0.055
1.758,-0.19
1.76,-0.285
1.762,-0.335
1.764,-0.26
1.766,-0.27
1.768,-0.29
1.77,-0.175
1.772,-0.06
1.774,-0.015
1.776,-0.085
1.778,-0.135
1.78,-0.19
1.782,-0.26
1.784,-0.345
1.786,-0.36
1.788,-0.235
1.79,-0.165
1.792,-0.09
1.794,-0.05
1.796,-0.01
1.798,-0.135
1.8,-0.225
1.802,-0.32
1.804,-0.315
1.806,-0.28
1.808,-0.185
1.81,-0.125
1.812,-0.1
1.814,-0.075
1.816,-0.02
1.818,-0.035
1.82,-0.14
1.822,-0.285
1.824,-0.255
1.826,-0.21
1.828,-0.12
1.83,-0.045
1.832,0.05
1.834,-0.005
1.836,-0.07
1.838,-0.13
1.84,-0.155
1.842,-0.275
1.844,-0.2
1.846,-0.155
1.848,-0.11
1.85,-0.065
1.852,0.075
1.854,0.085
1.856,0.055
1.858,-0.045
1.86,-0.08
1.862,-0.175
1.864,-0.135
1.866,-0.085
1.868,0.025
1.87,-0.01
1.872,0.06
1.874,0.035
1.876,-0.005
1.878,-0.005
1.88,-0.12
1.882,-0.175
1.884,-0.04
1.886,-0.02
1.888,0.015
1.89,0.005
1.892,0.145
1.894,0.145
1.896,0.07
1.898,0.075
1.9,-0.005
1.902,-0.115
1.904,-0.12
1.906,-0.075
1.908,-0.005
1.91,0.035
1.912,0.215
1.914,0.195
1.916,0.065
1.918,0.02
1.92,-0.035
1.922,-0.1
1.924,-0.15
1.926,-0.11
1.928,-0.085
1.93,-0.015
1.932,0.065
1.934,0.025
1.936,-0.015
1.938,-0.09
1.94,-0.095
1.942,-0.195
1.944,-0.24
1.946,-0.22
1.948,-0.12
1.95,-0.115
1.952,0.065
1.954,-0.01
1.956,-0.075
1.958,-0.145
1.96,-0.215
1.962,-0.315
1.964,-0.255
1.966,-0.22
1.968,-0.205
1.97,-0.16
1.972,-0.095
1.974,-0.115
1.976,-0.105
1.978,-0.22
1.98,-0.215
1.982,-0.31
1.984,-0.31
1.986,-0.185
1.988,-0.195
1.99,-0.205
1.992,-0.06
1.994,-0.04
1.996,-0.105
1.998,-0.175
2,-0.19
2.002,-0.25
2.004,-0.27
2.006,-0.275
2.008,-0.155
2.01,-0.12
2.012,-0.065
2.014,-0.09
2.016,-0.12
2.018,-0.285
2.02,-0.26
2.022,-0.305
2.024,-0.315
2.026,-0.235
2.028,-0.145
2.03,-0.065
2.032,-0.035
2.034,-0.08
2.036,-0.175
2.038,-0.24
2.04,-0.225
2.042,-0.23
2.044,-0.23
2.046,-0.185
2.048,-0.125
2.05,-0.065
2.052,-0.075
2.054,-0.065
2.056,-0.17
2.058,-0.235
2.06,-0.33
2.062,-0.27
2.064,-0.225
2.066,-0.17
2.068,-0.15
2.07,-0.085
2.072,-0.08
2.074,-0.05
2.076,-0.155
2.078,-0.205
2.08,-0.245
2.082,-0.2
2.084,-0.22
2.086,-0.225
2.088,-0.11
2.09,-0.05
2.092,-0.07
2.094,-0.085
2.096,-0.11
2.098,-0.25
2.1,-0.345
2.102,-0.285
2.104,-0.2
2.106,-0.225
2.108,-0.125
2.11,-0.11
2.112,-0.105
2.114,0.085
2.116,-0.08
2.118,-0.175
2.12,-0.3
2.122,-0.27
2.124,-0.225
2.126,-0.18
2.128,-0.12
2.13,-0.065
2.132,-0.045
2.134,-0.09
2.136,-0.14
2.138,-0.18
2.14,-0.265
2.142,-0.26
2.144,-0.225
2.146,-0.175
2.148,-0.085
2.15,-0.015
2.152,-0.06
2.154,-0.14
2.156,-0.165
2.158,-0.19
2.16,-0.28
2.162,-0.28
2.164,-0.255
2.166,-0.165
2.168,-0.155
2.17,-0.015
2.172,-0.015
2.174,-0.07
2.176,-0.16
2.178,-0.11
2.18,-0.185
2.182,-0.3
2.184,-0.25
2.186,-0.18
2.188,-0.095
2.19,0.015
2.192,-0.02
2.194,-0.095
2.196,-0.19
2.198,-0.255
2.2,-0.25
2.202,-0.235
2.204,-0.235
2.206,-0.085
2.208,-0.07
2.21,0.035
2.212,-0.01
2.214,-0.115
2.216,-0.155
2.218,-0.16
2.22,-0.21
2.222,-0.26
2.224,-0.205
2.226,-0.1
2.228,-0.085
2.23,-0.015
2.232,0.03
2.234,-0.035
2.236,-0.155
2.238,-0.145
2.24,-0.21
2.242,-0.215
2.244,-0.17
2.246,-0.15
2.248,-0.19
2.25,-0.06
2.252,-0.1
2.254,-0.185
2.256,-0.255
2.258,-0.22
2.26,-0.23
2.262,-0.235
2.264,-0.225
2.266,-0.135
2.268,-0.105
2.27,-0.11
2.272,-0.03
2.274,-0.065
2.276,-0.185
2.278,-0.265
2.28,-0.32
2.282,-0.265
2.284,-0.245
2.286,-0.18
2.288,-0.135
2.29,-0.005
2.292,-0.025
2.294,-0.14
2.296,-0.22
2.298,-0.285
2.3,-0.4
2.302,-0.305
2.304,-0.135
2.306,-0.03
2.308,-0.05
2.31,-0.05
2.312,-0.11
2.314,-0.115
2.316,-0.17
2.318,-0.19
2.32,-0.255
2.322,-0.225
2.324,-0.145
2.326,-0.05
2.328,0.045
2.33,0.15
2.332,0.135
2.334,0.05
2.336,0.02
2.338,-0.1
2.34,0.015
2.342,-0.02
2.344,-0.015
2.346,0.035
2.348,0.095
2.35,0.13
2.352,0.045
2.354,-0.15
2.356,-0.325
2.358,-0.415
2.36,-0.405
2.362,-0.385
2.364,-0.35
2.366,-0.235
2.368,-0.15
2.37,-0.07
2.372,-0.05
2.374,-0.11
2.376,-0.21
2.378,-0.3
2.38,-0.365
2.382,-0.265
2.384,-0.23
2.386,-0.15
2.388,-0.08
2.39,-0.065
2.392,-0.135
2.394,-0.27
2.396,-0.2
2.398,-0.245
2.4,-0.235
2.402,-0.31
2.404,-0.195
2.406,-0.21
2.408,-0.07
2.41,-0.035
2.412,-0.105
2.414,-0.2
2.416,-0.23
2.418,-0.23
2.42,-0.185
2.422,-0.165
2.424,-0.185
2.426,-0.105
2.428,-0.01
2.43,-0.08
2.432,-0.11
2.434,-0.18
2.436,-0.215
2.438,-0.305
2.44,-0.265
2.442,-0.225
2.444,-0.16
2.446,-0.085
2.448,-0.025
2.45,-0.085
2.452,-0.08
2.454,-0.105
2.456,-0.19
2.458,-0.255
2.46,-0.24
2.462,-0.195
2.464,-0.1
2.466,-0.1
2.468,0.04
2.47,-0.04
2.472,-0.1
2.474,-0.16
2.476,-0.185
2.478,-0.305
2.48,-0.315
2.482,-0.26
2.484,-0.075
2.486,-0.065
2.488,0.015
2.49,-0.005
2.492,0.07
2.494,-0.115
2.496,-0.145
2.498,-0.235
2.5,-0.19
2.502,-0.135
2.504,-0.15
2.506,-0.11
2.508,0.02
2.51,-0.015
2.512,0.025
2.514,-0.03
2.516,-0.14
2.518,-0.25
2.52,-0.2
2.522,-0.135
2.524,-0.075
2.526,-0.035
2.528,0.065
2.53,0.045
2.532,0
2.534,-0.01
2.536,-0.055
2.538,-0.155
2.54,-0.17
2.542,-0.125
2.544,-0.015
2.546,0.045
2.548,0.165
2.55,0.115
2.552,0.025
2.554,0.005
2.556,-0.025
2.558,-0.08
2.56,-0.08
2.562,0.06
2.564,0.065
2.566,0.06
2.568,0.14
2.57,0.175
2.572,0.11
2.574,0.025
2.576,-0.02
2.578,-0.08
2.58,-0.055
2.582,-0.045
2.584,-0.03
2.586,0.12
2.588,0.22
2.59,0.185
2.592,0.13
2.594,0.06
2.596,0.035
2.598,-0.035
2.6,0.015
2.602,-0.015
2.604,0.05
2.606,0.01
2.608,0.06
2.61,0.11
2.612,0
2.614,-0.18
2.616,-0.235
2.618,-0.245
2.62,-0.215
2.622,-0.08
2.624,-0.02
2.626,-0.055
2.628,-0.035
2.63,0
2.632,-0.115
2.634,-0.215
2.636,-0.26
2.638,-0.27
2.64,-0.29
2.642,-0.295
2.644,-0.085
2.646,-0.075
2.648,-0.005
2.65,-0.05
2.652,-0.16
2.654,-0.2
2.656,-0.29
2.658,-0.31
2.66,-0.345
2.662,-0.21
2.664,-0.15
2.666,-0.095
2.668,-0.09
2.67,-0.19
2.672,-0.205
2.674,-0.21
2.676,-0.225
2.678,-0.295
2.68,-0.265
2.682,-0.205
2.684,-0.205
2.686,-0.12
2.688,-0.07
2.69,-0.105
2.692,-0.14
2.694,-0.215
2.696,-0.29
2.698,-0.31
2.7,-0.32
2.702,-0.245
2.704,-0.16
2.706,-0.1
2.708,-0.08
2.71,-0.11
2.712,-0.22
2.714,-0.3
2.716,-0.29
2.718,-0.27
2.72,-0.24
2.722,-0.16
2.724,-0.185
2.726,-0.035
2.728,-0.055
2.73,-0.13
2.732,-0.215
2.734,-0.31
2.736,-0.38
2.738,-0.285
2.74,-0.265
2.742,-0.21
2.744,-0.17
2.746,-0.095
2.748,-0.115
2.75,-0.145
2.752,-0.165
2.754,-0.25
2.756,-0.335
2.758,-0.31
2.76,-0.295
2.762,-0.155
2.764,-0.145
2.766,-0.055
2.768,-0.125
2.77,-0.115
2.772,-0.205
2.774,-0.275
2.776,-0.345
2.778,-0.28
2.78,-0.21
2.782,-0.125
2.784,-0.16
2.786,-0.085
2.788,-0.075
2.79,-0.105
2.792,-0.18
2.794,-0.15
2.796,-0.34
2.798,-0.245
2.8,-0.175
2.802,-0.21
2.804,-0.16
2.806,-0.05
2.808,-0.035
2.81,-0.095
2.812,-0.17
2.814,-0.165
2.816,-0.305
2.818,-0.34
2.82,-0.29
2.822,-0.185
2.824,-0.09
2.826,-0.055
2.828,-0.085
2.83,-0.075
2.832,-0.16
2.834,-0.19
2.836,-0.265
2.838,-0.335
2.84,-0.315
2.842,-0.17
2.844,-0.105
2.846,-0.05
2.848,-0.085
2.85,-0.145
2.852,-0.24
2.854,-0.24
2.856,-0.27
2.858,-0.3
2.86,-0.195
2.862,-0.18
2.864,-0.165
2.866,-0.02
2.868,-0.045
2.87,-0.095
2.872,-0.13
2.874,-0.18
2.876,-0.27
2.878,-0.325
2.88,-0.23
2.882,-0.135
2.884,-0.07
2.886,0.03
2.888,-0.025
2.89,-0.12
2.892,-0.22
2.894,-0.215
2.896,-0.37
2.898,-0.34
2.9,-0.205
2.902,-0.19
2.904,-0.145
2.906,0.025
2.908,0.005
2.91,-0.125
2.912,-0.205
2.914,-0.2
2.916,-0.3
2.918,-0.27
2.92,-0.17
2.922,-0.07
2.924,-0.025
2.926,-0.03
2.928,-0.15
2.93,-0.12
2.932,-0.165
2.934,-0.195
2.936,-0.26
2.938,-0.285
2.94,-0.2
2.942,-0.05
2.944,-0.025
2.946,0.065
2.948,0.065
2.95,-0.08
2.952,-0.175
2.954,-0.25
2.956,-0.24
2.958,-0.265
2.96,-0.24
2.962,-0.04
2.964,-0.03
2.966,-0.03
2.968,0.005
2.97,-0.12
2.972,-0.235
2.974,-0.245
2.976,-0.31
2.978,-0.3
2.98,-0.17
2.982,-0.13
2.984,-0.055
2.986,-0.02
2.988,-0.055
2.99,-0.14
2.992,-0.17
2.994,-0.26
2.996,-0.29
2.998,-0.28
3,-0.21
3.002,-0.14
3.004,-0.03
3.006,-0.05
3.008,-0.06
3.01,-0.205
3.012,-0.26
3.014,-0.28
3.016,-0.3
3.018,-0.29
3.02,-0.22
3.022,-0.11
3.024,0.005
3.026,-0.045
3.028,-0.05
3.03,-0.065
3.032,-0.145
3.034,-0.235
3.036,-0.185
3.038,-0.2
3.04,-0.185
3.042,-0.12
3.044,0.025
3.046,0.035
3.048,0.05
3.05,0.015
3.052,0.005
3.054,-0.155
3.056,-0.105
3.058,-0.005
3.06,0.1
3.062,0.195
3.064,0.225
3.066,0.22
3.068,0.18
3.07,0.07
3.072,-0.04
3.074,-0.22
3.076,-0.265
3.078,-0.27
3.08,-0.22
3.082,-0.205
3.084,-0.12
3.086,-0.11
3.088,-0.23
3.09,-0.24
3.092,-0.205
3.094,-0.31
3.096,-0.26
3.098,-0.235
3.1,-0.205
3.102,-0.065
3.104,0.045
3.106,0.03
3.108,-0.07
3.11,-0.16
3.112,-0.205
3.114,-0.275
3.116,-0.37
3.118,-0.255
3.12,-0.145
3.122,-0.105
3.124,-0.01
3.126,-0.005
3.128,-0.075
3.13,-0.14
3.132,-0.18
3.134,-0.24
3.136,-0.27
3.138,-0.25
3.14,-0.155
3.142,-0.075
3.144,0.01
3.146,-0.01
3.148,-0.12
3.15,-0.21
3.152,-0.215
3.154,-0.255
3.156,-0.255
3.158,-0.18
3.16,-0.125
3.162,-0.05
3.164,0.025
3.166,-0.02
3.168,-0.11
3.17,-0.17
3.172,-0.175
3.174,-0.29
3.176,-0.235
3.178,-0.13
3.18,-0.1
3.182,-0.065
3.184,0.01
3.186,0.035
3.188,-0.05
3.19,-0.1
3.192,-0.23
3.194,-0.275
3.196,-0.22
3.198,-0.145
3.2,-0.075
3.202,-0.075
3.204,-0.03
3.206,0.02
3.208,-0.02
3.21,-0.145
3.212,-0.185
3.214,-0.23
3.216,-0.245
3.218,-0.145
3.22,0.005
3.222,-0.015
3.224,0.005
3.226,0.05
3.228,-0.035
3.23,-0.05
3.232,-0.155
3.234,-0.195
3.236,-0.165
3.238,-0.12
3.24,0.005
3.242,0.09
3.244,0.055
3.246,0.07
3.248,-0.015
3.25,-0.04
3.252,-0.12
3.254,-0.13
3.256,-0.07
3.258,0
3.26,0.07
3.262,0.115
3.264,0.15
3.266,0.165
3.268,0.11
3.27,0.01
3.272,-0.05
3.274,-0.075
3.276,-0.065
3.278,0.015
3.28,0.08
3.282,0.165
3.284,0.205
3.286,0.21
3.288,0.04
3.29,0.025
3.292,-0.02
3.294,0.025
3.296,0.015
3.298,0.055
3.3,0.08
3.302,0.225
3.304,0.22
3.306,0.225
3.308,0.12
3.31,0.065
3.312,-0.045
3.314,-0.06
3.316,0.005
3.318,0.1
3.32,0.085
3.322,0.23
3.324,0.11
3.326,0.16
3.328,0.215
3.33,0.03
3.332,-0.11
3.334,-0.11
3.336,-0.04
3.338,-0.01
3.34,-0.03
3.342,0.035
3.344,0.035
3.346,0.045
3.348,-0.04
3.35,-0.08
3.352,-0.23
3.354,-0.19
3.356,-0.15
3.358,-0.085
3.36,-0.08
3.362,-0.035
3.364,-0.02
3.366,-0.07
3.368,-0.075
3.37,-0.13
3.372,-0.305
3.374,-0.255
3.376,-0.21
3.378,-0.135
3.38,-0.085
3.382,0.07
3.384,0.015
3.386,-0.085
3.388,-0.19
3.39,-0.26
3.392,-0.31
3.394,-0.31
3.396,-0.23
3.398,-0.14
3.4,-0.075
3.402,0.005
3.404,0.005
3.406,-0.035
3.408,-0.165
3.41,-0.21
3.412,-0.325
3.414,-0.32
3.416,-0.25
3.418,-0.225
3.42,-0.08
3.422,0.025
3.424,-0.025
3.426,-0.115
3.428,-0.17
3.43,-0.19
3.432,-0.29
3.434,-0.26
3.436,-0.2
3.438,-0.17
3.44,-0.145
3.442,-0.03
3.444,0
3.446,-0.07
3.448,-0.11
3.45,-0.09
3.452,-0.24
3.454,-0.315
3.456,-0.225
3.458,-0.135
3.46,-0.135
3.462,-0.055
3.464,-0.095
3.466,-0.145
3.468,-0.16
3.47,-0.175
3.472,-0.215
3.474,-0.205
3.476,-0.15
3.478,-0.095
3.48,-0.155
3.482,-0.08
3.484,-0.075
3.486,-0.13
3.488,-0.21
3.49,-0.18
3.492,-0.23
3.494,-0.295
3.496,-0.155
3.498,-0.065
3.5,-0.005
3.502,0.015
3.504,-0.1
3.506,-0.15
3.508,-0.14
3.51,-0.24
3.512,-0.215
3.514,-0.28
3.516,-0.17
3.518,-0.095
3.52,-0.1
3.522,-0.07
3.524,-0.045
3.526,-0.07
3.528,-0.185
3.53,-0.25
3.532,-0.27
3.534,-0.265
3.536,-0.18
3.538,-0.06
3.54,-0.045
3.542,-0.045
3.544,-0.065
3.546,-0.18
3.548,-0.27
3.55,-0.295
3.552,-0.26
3.554,-0.19
3.556,-0.08
3.558,-0.065
3.56,-0.05
3.562,-0.05
3.564,-0.08
3.566,-0.095
3.568,-0.225
3.57,-0.345
3.572,-0.25
3.574,-0.205
3.576,-0.165
3.578,-0.105
3.58,-0.055
3.582,-0.025
3.584,-0.035
3.586,-0.185
3.588,-0.175
3.59,-0.26
3.592,-0.225
3.594,-0.25
3.596,-0.2
3.598,-0.13
3.6,-0.085
3.602,0
3.604,-0.075
3.606,-0.15
3.608,-0.155
3.61,-0.24
3.612,-0.25
3.614,-0.21
3.616,-0.18
3.618,-0.17
3.62,-0.05
3.622,-0.08
3.624,-0.075
3.626,-0.19
3.628,-0.275
3.63,-0.375
3.632,-0.295
3.634,-0.175
3.636,-0.155
3.638,-0.075
3.64,0.025
3.642,-0.07
3.644,-0.07
3.646,-0.04
3.648,-0.195
3.65,-0.315
3.652,-0.305
3.654,-0.19
3.656,-0.105
3.658,-0.125
3.66,0.025
3.662,0
3.664,-0.055
3.666,-0.11
3.668,-0.12
3.67,-0.255
3.672,-0.275
3.674,-0.21
3.676,-0.12
3.678,-0.085
3.68,0.06
3.682,0.055
3.684,-0.03
3.686,-0.22
3.688,-0.205
3.69,-0.215
3.692,-0.24
3.694,-0.23
3.696,-0.06
3.698,-0.015
3.7,0.055
3.702,-0.035
3.704,-0.09
3.706,-0.125
3.708,-0.19
3.71,-0.245
3.712,-0.16
3.714,-0.16
3.716,-0.155
3.718,-0.195
3.72,-0.035
3.722,-0.06
3.724,-0.11
3.726,-0.2
3.728,-0.2
3.73,-0.275
3.732,-0.255
3.734,-0.23
3.736,-0.14
3.738,-0.105
3.74,-0.025
3.742,-0.035
3.744,-0.13
3.746,-0.215
3.748,-0.24
3.75,-0.31
3.752,-0.285
3.754,-0.245
3.756,-0.135
3.758,-0.125
3.76,-0.045
3.762,-0.045
3.764,-0.13
3.766,-0.195
3.768,-0.245
3.77,-0.22
3.772,-0.145
3.774,-0.075
3.776,-0.035
3.778,-0.04
3.78,-0.05
3.782,-0.09
3.784,-0.125
3.786,-0.18
3.788,-0.16
3.79,-0.205
3.792,-0.13
3.794,0.005
3.796,0.18
3.798,0.24
3.8,0.265
3.802,0.21
3.804,0.16
3.806,0.14
3.808,0.055
3.81,0.005
3.812,-0.03
3.814,-0.01
3.816,0.09
3.818,0.075
3.82,0.025
3.822,-0.095
3.824,-0.285
3.826,-0.375
3.828,-0.445
3.83,-0.34
3.832,-0.365
3.834,-0.215
3.836,-0.09
3.838,-0.035
3.84,-0.045
3.842,-0.07
3.844,-0.185
3.846,-0.175
3.848,-0.235
3.85,-0.28
3.852,-0.225
3.854,-0.14
3.856,-0.08
3.858,-0.075
3.86,-0.055
3.862,-0.17
3.864,-0.105
3.866,-0.155
3.868,-0.285
3.87,-0.305
3.872,-0.275
3.874,-0.13
3.876,-0.065
3.878,-0.01
3.88,0
3.882,-0.035
3.884,-0.07
3.886,-0.175
3.888,-0.23
3.89,-0.25
3.892,-0.255
3.894,-0.165
3.896,-0.07
3.898,-0.06
3.9,0.01
3.902,-0.045
3.904,-0.07
3.906,-0.14
3.908,-0.265
3.91,-0.24
3.912,-0.26
3.914,-0.155
3.916,-0.065
3.918,-0.04
3.92,-0.055
3.922,-0.055
3.924,-0.16
3.926,-0.125
3.928,-0.225
3.93,-0.245
3.932,-0.13
3.934,-0.075
3.936,-0.04
3.938,0.005
3.94,-0.01
3.942,-0.015
3.944,-0.125
3.946,-0.155
3.948,-0.205
3.95,-0.145
3.952,-0.075
3.954,-0.085
3.956,-0.055
3.958,0.015
3.96,0.005
3.962,-0.04
3.964,-0.175
3.966,-0.145
3.968,-0.215
3.97,-0.21
3.972,-0.185
3.974,-0.12
3.976,-0.005
3.978,0.16
3.98,0.07
3.982,0.075
3.984,-0.045
3.986,-0.125
3.988,-0.175
3.99,-0.17
3.992,-0.115
3.994,-0.1
3.996,0
3.998,0.06
4,0.11
4.002,0.13
4.004,-0.04
4.006,-0.07
4.008,-0.075
4.01,-0.075
4.012,-0.065
4.014,0.035
4.016,0.075
4.018,0.18
4.02,0.155
4.022,0.12
4.024,0.065
4.026,0.01
4.028,-0.055
4.03,-0.11
4.032,-0.04
4.034,0.09
4.036,0.07
4.038,0.28
4.04,0.27
4.042,0.155
4.044,0.075
4.046,0.075
4.048,0
4.05,-0.03
4.052,0.07
4.054,0.13
4.056,0.155
4.058,0.24
4.06,0.225
4.062,0.115
4.064,0.06
4.066,0.025
4.068,-0.08
4.07,-0.045
4.072,-0.03
4.074,0.045
4.076,0.065
4.078,0.14
4.08,0.1
4.082,0.01
4.084,-0.06
4.086,-0.065
4.088,-0.125
4.09,-0.14
4.092,-0.12
4.094,-0.04
4.096,-0.065
4.098,-0.045
4.1,-0.06
4.102,-0.035
4.104,-0.125
4.106,-0.19
4.108,-0.23
4.11,-0.225
4.112,-0.195
4.114,-0.055
4.116,-0.04
4.118,-0.035
4.12,-0.135
4.122,-0.185
4.124,-0.165
4.126,-0.175
4.128,-0.275
4.13,-0.285
4.132,-0.195
4.134,-0.155
4.136,-0.1
4.138,-0.07
4.14,-0.085
4.142,-0.175
4.144,-0.2
4.146,-0.265
4.148,-0.215
4.15,-0.265
4.152,-0.215
4.154,-0.13
4.156,-0.085
4.158,-0.07
4.16,-0.085
4.162,-0.16
4.164,-0.26
4.166,-0.27
4.168,-0.29
4.17,-0.275
4.172,-0.23
4.174,-0.15
4.176,-0.03
4.178,-0.04
4.18,-0.15
4.182,-0.17
4.184,-0.225
4.186,-0.29
4.188,-0.29
4.19,-0.275
4.192,-0.165
4.194,-0.11
4.196,-0.045
4.198,-0.035
4.2,-0.1
4.202,-0.145
4.204,-0.155
4.206,-0.265
4.208,-0.28
4.21,-0.26
4.212,-0.175
4.214,-0.165
4.216,-0.03
4.218,-0.035
4.22,-0.06
4.222,-0.18
4.224,-0.19
4.226,-0.25
4.228,-0.26
4.23,-0.28
4.232,-0.2
4.234,-0.15
4.236,-0.005
4.238,-0.02
4.24,-0.125
4.242,-0.18
4.244,-0.235
4.246,-0.31
4.248,-0.28
4.25,-0.23
4.252,-0.175
4.254,-0.13
4.256,-0.025
4.258,-0.03
4.26,-0.115
4.262,-0.19
4.264,-0.215
4.266,-0.305
4.268,-0.3
4.27,-0.255
4.272,-0.145
4.274,-0.115
4.276,-0.025
4.278,-0.055
4.28,-0.115
4.282,-0.21
4.284,-0.255
4.286,-0.365
4.288,-0.36
4.29,-0.205
4.292,-0.14
4.294,-0.12
4.296,-0.03
4.298,-0.1
4.3,-0.13
4.302,-0.165
4.304,-0.27
4.306,-0.365
4.308,-0.37
4.31,-0.265
4.312,-0.02
4.314,-0.09
4.316,-0.04
4.318,-0.08
4.32,-0.1
4.322,-0.135
4.324,-0.23
4.326,-0.305
4.328,-0.325
4.33,-0.16
4.332,-0.155
4.334,-0.15
4.336,-0.065
4.338,-0.025
4.34,-0.105
4.342,-0.17
4.344,-0.31
4.346,-0.29
4.348,-0.305
4.35,-0.28
4.352,-0.17
4.354,-0.095
4.356,-0.02
4.358,-0.065
4.36,-0.095
4.362,-0.175
4.364,-0.245
4.366,-0.335
4.368,-0.31
4.37,-0.215
4.372,-0.105
4.374,-0.065
4.376,-0.065
4.378,-0.105
4.38,-0.12
4.382,-0.275
4.384,-0.325
4.386,-0.275
4.388,-0.245
4.39,-0.185
4.392,-0.125
4.394,-0.095
4.396,-0.05
4.398,-0.16
4.4,-0.245
4.402,-0.22
4.404,-0.24
4.406,-0.245
4.408,-0.205
4.41,-0.155
4.412,-0.095
4.414,-0.145
4.416,-0.105
4.418,-0.05
4.42,-0.155
4.422,-0.21
4.424,-0.275
4.426,-0.33
4.428,-0.305
4.43,-0.28
4.432,-0.18
4.434,-0.085
4.436,-0.105
4.438,-0.09
4.44,-0.15
4.442,-0.18
4.444,-0.255
4.446,-0.32
4.448,-0.3
4.45,-0.165
4.452,-0.145
4.454,-0.025
4.456,0.015
4.458,-0.1
4.46,-0.115
4.462,-0.23
4.464,-0.305
4.466,-0.285
4.468,-0.35
4.47,-0.22
4.472,-0.15
4.474,-0.045
4.476,-0.055
4.478,-0.095
4.48,-0.175
4.482,-0.225
4.484,-0.32
4.486,-0.33
4.488,-0.145
4.49,-0.03
4.492,-0.145
4.494,-0.115
4.496,-0.075
4.498,-0.105
4.5,-0.175
4.502,-0.235
4.504,-0.33
4.506,-0.28
4.508,-0.215
4.51,-0.21
4.512,-0.2
4.514,-0.12
4.516,-0.11
4.518,-0.115
4.52,-0.125
4.522,-0.27
4.524,-0.355
4.526,-0.3
4.528,-0.215
4.53,-0.205
4.532,-0.145
4.534,-0.02
4.536,-0.065
4.538,-0.12
4.54,-0.225
4.542,-0.2
4.544,-0.265
4.546,-0.225
4.548,-0.22
4.55,-0.18
4.552,-0.125
4.554,-0.055
4.556,-0.015
4.558,-0.1
4.56,-0.195
4.562,-0.225
4.564,-0.335
4.566,-0.305
4.568,-0.24
4.57,-0.135
4.572,-0.155
4.574,-0.065
4.576,-0.1
4.578,-0.165
4.58,-0.195
4.582,-0.205
4.584,-0.305
4.586,-0.275
4.588,-0.215
4.59,-0.135
4.592,-0.17
4.594,-0.06
4.596,-0.015
4.598,-0.045
4.6,-0.23
4.602,-0.225
4.604,-0.375
4.606,-0.345
4.608,-0.245
4.61,-0.105
4.612,-0.15
4.614,-0.105
4.616,-0.055
4.618,-0.145
4.62,-0.235
4.622,-0.285
4.624,-0.34
4.626,-0.255
4.628,-0.215
4.63,-0.14
4.632,-0.115
4.634,-0.07
4.636,-0.13
4.638,-0.195
4.64,-0.26
4.642,-0.29
4.644,-0.31
4.646,-0.28
4.648,-0.205
4.65,-0.15
4.652,-0.06
4.654,-0.03
4.656,-0.04
4.658,-0.15
4.66,-0.265
4.662,-0.26
4.664,-0.32
4.666,-0.27
4.668,-0.275
4.67,-0.175
4.672,-0.115
4.674,-0.07
4.676,-0.04
4.678,-0.08
4.68,-0.205
4.682,-0.255
4.684,-0.34
4.686,-0.31
4.688,-0.195
4.69,-0.15
4.692,-0.11
4.694,0.01
4.696,-0.04
4.698,-0.095
4.7,-0.205
4.702,-0.27
4.704,-0.32
4.706,-0.23
4.708,-0.235
4.71,-0.135
4.712,-0.11
4.714,-0.09
4.716,-0.05
4.718,-0.065
4.72,-0.23
4.722,-0.24
4.724,-0.29
4.726,-0.305
4.728,-0.175
4.73,-0.08
4.732,-0.08
4.734,-0.045
4.736,-0.03
4.738,-0.16
4.74,-0.245
4.742,-0.27
4.744,-0.27
4.746,-0.31
4.748,-0.165
4.75,-0.09
4.752,-0.04
4.754,-0.04
4.756,-0.05
4.758,-0.03
4.76,-0.145
4.762,-0.295
4.764,-0.345
4.766,-0.2
4.768,-0.15
4.77,-0.135
4.772,-0.02
4.774,-0.005
4.776,-0.04
4.778,-0.12
4.78,-0.165
4.782,-0.215
4.784,-0.245
4.786,-0.235
4.788,-0.115
4.79,-0.105
4.792,-0.02
4.794,-0.025
4.796,-0.085
4.798,-0.2
4.8,-0.23
4.802,-0.34
4.804,-0.235
4.806,-0.175
4.808,-0.11
4.81,-0.125
4.812,-0.055
4.814,-0.065
4.816,-0.075
4.818,-0.2
4.82,-0.27
4.822,-0.3
4.824,-0.27
4.826,-0.265
4.828,-0.17
4.83,-0.17
4.832,-0.025
4.834,-0.04
4.836,-0.12
4.838,-0.205
4.84,-0.235
4.842,-0.33
4.844,-0.305
4.846,-0.24
4.848,-0.17
4.85,-0.115
4.852,0.015
4.854,0.02
4.856,-0.035
4.858,-0.105
4.86,-0.14
4.862,-0.235
4.864,-0.205
4.866,-0.115
4.868,-0.045
4.87,-0.03
4.872,0.18
4.874,0.14
4.876,0.08
4.878,-0.04
4.88,-0.01
4.882,-0.05
4.884,-0.045
4.886,0.045
4.888,0.1
4.89,0.08
4.892,0.145
4.894,0.065
4.896,0.015
4.898,-0.18
4.9,-0.28
4.902,-0.455
4.904,-0.445
4.906,-0.41
4.908,-0.185
4.91,-0.135
4.912,-0.05
4.914,-0.02
4.916,-0.075
4.918,-0.19
4.92,-0.235
4.922,-0.33
4.924,-0.32
4.926,-0.275
4.928,-0.14
4.93,-0.04
4.932,-0.07
4.934,-0.075
4.936,-0.115
4.938,-0.175
4.94,-0.21
4.942,-0.27
4.944,-0.275
4.946,-0.215
4.948,-0.18
4.95,-0.09
4.952,-0.04
4.954,-0.03
4.956,-0.09
4.958,-0.16
4.96,-0.22
4.962,-0.195
4.964,-0.215
4.966,-0.22
4.968,-0.16
4.97,-0.115
4.972,-0.025
4.974,-0.04
4.976,-0.14
4.978,-0.215
4.98,-0.2
4.982,-0.24
4.984,-0.23
4.986,-0.185
4.988,-0.17
4.99,-0.025
4.992,0.025
4.994,0.01
4.996,-0.075
4.998,-0.195
5,-0.315
5.002,-0.24
5.004,-0.21
5.006,-0.17
5.008,-0.08
5.01,0.02
5.012,-0.025
5.014,-0.065
5.016,-0.035
5.018,-0.155
5.02,-0.19
5.022,-0.23
5.024,-0.22
5.026,-0.095
5.028,-0.08
5.03,-0.02
5.032,0.08
5.034,0.055
5.036,-0.08
5.038,-0.12
5.04,-0.23
5.042,-0.24
5.044,-0.155
5.046,-0.105
5.048,-0.065
5.05,0.005
5.052,0.03
5.054,0.015
5.056,-0.125
5.058,-0.105
5.06,-0.155
5.062,-0.14
5.064,-0.14
5.066,-0.055
5.068,-0.02
5.07,0.08
5.072,0.01
5.074,-0.05
5.076,-0.06
5.078,-0.01
5.08,-0.205
5.082,-0.22
5.084,-0.185
5.086,-0.035
5.088,0.03
5.09,0.205
5.092,0.235
5.094,0.115
5.096,0.06
5.098,0.04
5.1,-0.115
5.102,-0.095
5.104,-0.02
5.106,0.115
5.108,0.125
5.11,0.19
5.112,0.135
5.114,0.11
5.116,0.135
5.118,-0.04
5.12,-0.13
5.122,-0.02
5.124,-0.08
5.126,0.09
5.128,0.24
5.13,0.26
5.132,0.18
5.134,0.05
5.136,0.005
5.138,-0.015
5.14,-0.12
5.142,-0.13
5.144,-0.04
5.146,0.105
5.148,0.09
5.15,0.23
5.152,0.18
5.154,0.115
5.156,-0.015
5.158,-0.035
5.16,-0.155
5.162,-0.16
5.164,-0.04
5.166,0.01
5.168,-0.005
5.17,0.115
5.172,0.04
5.174,-0.02
5.176,-0.065
5.178,-0.135
5.18,-0.195
5.182,-0.18
5.184,-0.165
5.186,-0.115
5.188,-0.075
5.19,-0.03
5.192,-0.005
5.194,-0.06
5.196,-0.17
5.198,-0.25
5.2,-0.28
5.202,-0.19
5.204,-0.155
5.206,-0.13
5.208,-0.14
5.21,-0.065
5.212,-0.075
5.214,-0.08
5.216,-0.22
5.218,-0.185
5.22,-0.305
5.222,-0.335
5.224,-0.32
5.226,-0.15
5.228,-0.12
5.23,-0.035
5.232,-0.035
5.234,-0.18
5.236,-0.295
5.238,-0.2
5.24,-0.27
5.242,-0.285
5.244,-0.22
5.246,-0.105
5.248,-0.07
5.25,-0.055
5.252,-0.095
5.254,-0.12
5.256,-0.185
5.258,-0.28
5.26,-0.25
5.262,-0.23
5.264,-0.17
5.266,-0.1
5.268,-0.12
5.27,-0.065
5.272,-0.105
5.274,-0.175
5.276,-0.19
5.278,-0.275
5.28,-0.225
5.282,-0.26
5.284,-0.15
5.286,-0.13
5.288,-0.085
5.29,0.015
5.292,-0.06
5.294,-0.16
5.296,-0.165
5.298,-0.265
5.3,-0.33
5.302,-0.25
5.304,-0.23
5.306,-0.14
5.308,-0.02
5.31,0
5.312,-0.055
5.314,-0.215
5.316,-0.215
5.318,-0.33
5.32,-0.34
5.322,-0.225
5.324,-0.195
5.326,-0.055
5.328,-0.055
5.33,-0.015
5.332,-0.02
5.334,-0.045
5.336,-0.12
5.338,-0.265
5.34,-0.33
5.342,-0.28
5.344,-0.22
5.346,-0.21
5.348,0.01
5.35,0.03
5.352,-0.105
5.354,-0.095
5.356,-0.2
5.358,-0.355
5.36,-0.25
5.362,-0.19
5.364,-0.15
5.366,-0.15
5.368,-0.065
5.37,-0.055
5.372,-0.065
5.374,-0.135
5.376,-0.265
5.378,-0.3
5.38,-0.195
5.382,-0.245
5.384,-0.19
5.386,-0.11
5.388,-0.015
5.39,-0.06
5.392,-0.11
5.394,-0.175
5.396,-0.195
5.398,-0.255
5.4,-0.265
5.402,-0.27
5.404,-0.16
5.406,-0.1
5.408,-0.06
5.41,-0.065
5.412,-0.08
5.414,-0.18
5.416,-0.19
5.418,-0.275
5.42,-0.22
5.422,-0.19
5.424,-0.165
5.426,-0.11
5.428,-0.04
5.43,-0.105
5.432,-0.175
5.434,-0.27
5.436,-0.26
5.438,-0.33
5.44,-0.275
5.442,-0.145
5.444,-0.145
5.446,-0.1
5.448,0.05
5.45,-0.01
5.452,-0.095
5.454,-0.155
5.456,-0.235
5.458,-0.345
5.46,-0.27
5.462,-0.22
5.464,-0.175
5.466,-0.195
5.468,-0.015
5.47,0.015
5.472,-0.03
5.474,-0.125
5.476,-0.26
5.478,-0.37
5.48,-0.335
5.482,-0.235
5.484,-0.085
5.486,0.01
5.488,0.095
5.49,-0.075
5.492,-0.165
5.494,-0.14
5.496,-0.12
5.498,-0.32
5.5,-0.35
5.502,-0.205
5.504,-0.11
5.506,-0.15
5.508,-0.075
5.51,-0.08
5.512,-0.09
5.514,-0.195
5.516,-0.23
5.518,-0.37
5.52,-0.325
5.522,-0.225
5.524,-0.165
5.526,-0.18
5.528,-0.035
5.53,-0.035
5.532,-0.155
5.534,-0.17
5.536,-0.19
5.538,-0.33
5.54,-0.32
5.542,-0.275
5.544,-0.09
5.546,-0.02
5.548,0
5.55,-0.085
5.552,-0.235
5.554,-0.24
5.556,-0.21
5.558,-0.27
5.56,-0.225
5.562,-0.19
5.564,-0.1
5.566,-0.125
5.568,-0.075
5.57,-0.095
5.572,-0.105
5.574,-0.17
5.576,-0.22
5.578,-0.16
5.58,-0.21
5.582,-0.215
5.584,-0.15
5.586,-0.055
5.588,-0.075
5.59,-0.045
5.592,-0.085
5.594,-0.16
5.596,-0.26
5.598,-0.2
5.6,-0.135
5.602,-0.155
5.604,-0.09
5.606,0.03
5.608,0
5.61,-0.125
5.612,-0.135
5.614,-0.17
5.616,-0.255
5.618,-0.265
5.62,-0.195
5.622,-0.155
5.624,-0.195
5.626,-0.165
5.628,-0.11
5.63,-0.05
5.632,-0.085
5.634,-0.155
5.636,-0.285
5.638,-0.26
5.64,-0.305
5.642,-0.265
5.644,-0.11
5.646,0
5.648,-0.11
5.65,-0.19
5.652,-0.195
5.654,-0.23
5.656,-0.32
5.658,-0.27
5.66,-0.27
5.662,-0.18
5.664,-0.12
5.666,-0.035
5.668,-0.035
5.67,-0.06
5.672,-0.165
5.674,-0.215
5.676,-0.345
5.678,-0.305
5.68,-0.255
5.682,-0.195
5.684,-0.19
5.686,-0.01
5.688,-0.025
5.69,-0.045
5.692,-0.095
5.694,-0.135
5.696,-0.23
5.698,-0.17
5.7,-0.175
5.702,-0.05
5.704,0
5.706,0.22
5.708,0.14
5.71,0.04
5.712,0.035
5.714,0.035
5.716,0.02
5.718,0.035
5.72,0.01
5.722,0.05
5.724,0.045
5.726,0.14
5.728,0.04
5.73,-0.1
5.732,-0.22
5.734,-0.275
5.736,-0.39
5.738,-0.405
5.74,-0.33
5.742,-0.2
5.744,-0.15
5.746,-0.065
5.748,-0.04
5.75,-0.14
5.752,-0.225
5.754,-0.305
5.756,-0.345
5.758,-0.295
5.76,-0.24
5.762,-0.115
5.764,-0.1
5.766,-0.105
5.768,-0.095
5.77,-0.195
5.772,-0.245
5.774,-0.245
5.776,-0.325
5.778,-0.315
5.78,-0.195
5.782,-0.11
5.784,-0.14
5.786,-0.01
5.788,-0.08
5.79,-0.18
5.792,-0.175
5.794,-0.12
5.796,-0.15
5.798,-0.26
5.8,-0.19
5.802,-0.23
5.804,-0.175
5.806,-0.09
5.808,-0.08
5.81,-0.095
5.812,-0.22
5.814,-0.195
5.816,-0.315
5.818,-0.23
5.82,-0.11
5.822,-0.065
5.824,-0.08
5.826,0.025
5.828,0.07
5.83,-0.165
5.832,-0.245
5.834,-0.19
5.836,-0.265
5.838,-0.265
5.84,-0.135
5.842,-0.035
5.844,-0.075
5.846,0.045
5.848,-0.06
5.85,-0.105
5.852,-0.175
5.854,-0.17
5.856,-0.26
5.858,-0.265
5.86,-0.17
5.862,-0.13
5.864,-0.055
5.866,0.02
5.868,0.01
5.87,-0.075
5.872,-0.2
5.874,-0.2
5.876,-0.185
5.878,-0.165
5.88,-0.095
5.882,-0.03
5.884,0
5.886,0.09
5.888,-0.02
5.89,-0.155
5.892,-0.15
5.894,-0.14
5.896,-0.135
5.898,-0.195
5.9,-0.135
5.902,-0.015
5.904,0.085
5.906,0.055
5.908,0.14
5.91,0.01
5.912,-0.07
5.914,-0.16
5.916,-0.205
5.918,-0.255
5.92,-0.07
5.922,-0.02
5.924,0.11
5.926,0.185
5.928,0.155
5.93,0.085
5.932,0.095
5.934,0.03
5.936,-0.04
5.938,0.01
5.94,0.04
5.942,0.165
5.944,0.155
5.946,0.105
5.948,0.115
5.95,0.105
5.952,0.01
5.954,-0.06
5.956,0.02
5.958,-0.07
5.96,0.075
5.962,0.13
5.964,0.215
5.966,0.2
5.968,0.155
5.97,0.055
5.972,0.03
5.974,-0.06
5.976,-0.04
5.978,-0.02
5.98,0.07
5.982,0.085
5.984,0.125
5.986,0.065
5.988,0.05
5.99,0.015
5.992,-0.08
5.994,-0.215
5.996,-0.185
5.998,-0.145
6,-0.07
6.002,-0.005
6.004,0.08
6.006,-0.015
6.008,-0.045
6.01,-0.13
6.012,-0.17
6.014,-0.285
6.016,-0.225
6.018,-0.205
6.02,-0.105
6.022,-0.075
6.024,-0.04
6.026,-0.045
6.028,-0.105
6.03,-0.205
6.032,-0.145
6.034,-0.285
6.036,-0.315
6.038,-0.25
6.04,-0.145
6.042,-0.075
6.044,-0.02
6.046,-0.07
6.048,-0.135
6.05,-0.16
6.052,-0.175
6.054,-0.32
6.056,-0.275
6.058,-0.215
6.06,-0.2
6.062,-0.175
6.064,-0.11
6.066,-0.115
6.068,-0.16
6.07,-0.235
6.072,-0.21
6.074,-0.3
6.076,-0.27
6.078,-0.24
6.08,-0.21
6.082,-0.155
6.084,-0.03
6.086,-0.09
6.088,-0.13
6.09,-0.19
6.092,-0.225
6.094,-0.31
6.096,-0.265
6.098,-0.135
6.1,-0.105
6.102,-0.095
6.104,-0.025
6.106,-0.09
6.108,-0.145
6.11,-0.225
6.112,-0.265
6.114,-0.395
6.116,-0.275
6.118,-0.24
6.12,-0.215
6.122,-0.09
6.124,-0.025
6.126,-0.045
6.128,-0.14
6.13,-0.185
6.132,-0.265
6.134,-0.28
6.136,-0.21
6.138,-0.165
6.14,-0.12
6.142,-0.065
6.144,-0.035
6.146,-0.1
6.148,-0.175
6.15,-0.295
6.152,-0.285
6.154,-0.35
6.156,-0.285
6.158,-0.21
6.16,-0.135
6.162,-0.075
6.164,-0.085
6.166,-0.08
6.168,-0.165
6.17,-0.23
6.172,-0.285
6.174,-0.25
6.176,-0.18
6.178,-0.165
6.18,-0.075
6.182,-0.04
6.184,-0.065
6.186,-0.03
6.188,-0.16
6.19,-0.24
6.192,-0.25
6.194,-0.37
6.196,-0.295
6.198,-0.15
6.2,-0.115
6.202,-0.08
6.204,-0.095
6.206,-0.145
6.208,-0.165
6.21,-0.265
6.212,-0.315
6.214,-0.25
6.216,-0.265
6.218,-0.115
6.22,-0.04
6.222,-0.07
6.224,-0.055
6.226,-0.06
6.228,-0.1
6.23,-0.195
6.232,-0.36
6.234,-0.31
6.236,-0.33
6.238,-0.275
6.24,-0.2
6.242,-0.05
6.244,-0.04
6.246,-0.08
6.248,-0.17
6.25,-0.2
6.252,-0.265
6.254,-0.31
6.256,-0.29
6.258,-0.21
6.26,-0.115
6.262,-0.085
6.264,-0.12
6.266,-0.11
6.268,-0.215
6.27,-0.165
6.272,-0.27
6.274,-0.315
6.276,-0.235
6.278,-0.18
6.28,-0.1
6.282,-0.03
6.284,-0.105
6.286,-0.13
6.288,-0.225
6.29,-0.22
6.292,-0.34
6.294,-0.27
6.296,-0.235
6.298,-0.175
6.3,-0.12
6.302,-0.05
6.304,-0.02
6.306,-0.055
6.308,-0.17
6.31,-0.245
6.312,-0.31
6.314,-0.37
6.316,-0.285
6.318,-0.185
6.32,-0.175
6.322,-0.055
6.324,-0.09
6.326,-0.15
6.328,-0.175
6.33,-0.225
6.332,-0.33
6.334,-0.285
6.336,-0.215
6.338,-0.145
6.34,-0.11
6.342,-0.005
6.344,-0.005
6.346,-0.045
6.348,-0.14
6.35,-0.2
6.352,-0.345
6.354,-0.37
6.356,-0.295
6.358,-0.16
6.36,-0.13
6.362,0.025
6.364,-0.035
6.366,-0.07
6.368,-0.16
6.37,-0.22
6.372,-0.34
6.374,-0.27
6.376,-0.165
6.378,-0.055
6.38,-0.065
6.382,0.03
6.384,0.015
6.386,-0.105
6.388,-0.205
6.39,-0.215
6.392,-0.235
6.394,-0.235
6.396,-0.19
6.398,-0.125
6.4,-0.045
6.402,-0.035
6.404,-0.125
6.406,-0.18
6.408,-0.215
6.41,-0.255
6.412,-0.28
6.414,-0.3
6.416,-0.215
6.418,-0.125
6.42,-0.06
6.422,-0.11
6.424,-0.155
6.426,-0.08
6.428,-0.175
6.43,-0.215
6.432,-0.275
6.434,-0.295
6.436,-0.275
6.438,-0.19
6.44,-0.18
6.442,-0.125
6.444,-0.145
6.446,-0.215
6.448,-0.265
6.45,-0.265
6.452,-0.2
6.454,-0.27
6.456,-0.325
6.458,-0.155
6.46,-0.03
6.462,0
6.464,-0.04
6.466,-0.12
6.468,-0.135
6.47,-0.205
6.472,-0.295
6.474,-0.27
6.476,-0.215
6.478,-0.22
6.48,-0.15
6.482,-0.015
6.484,0.005
6.486,0
6.488,-0.005
6.49,0.005
6.492,-0.04
6.494,-0.06
6.496,0.03
6.498,0.16
6.5,0.26
6.502,0.215
6.504,0.13
6.506,0.08
6.508,0.05
6.51,-0.08
6.512,-0.155
6.514,-0.27
6.516,-0.32
6.518,-0.285
6.52,-0.23
6.522,-0.275
6.524,-0.18
6.526,-0.225
6.528,-0.3
6.53,-0.32
6.532,-0.28
6.534,-0.245
6.536,-0.165
6.538,-0.155
6.54,-0.065
6.542,-0.09
6.544,-0.19
6.546,-0.29
6.548,-0.21
6.55,-0.3
6.552,-0.3
6.554,-0.305
6.556,-0.21
6.558,-0.135
6.56,-0.09
6.562,-0.07
6.564,-0.07
6.566,-0.08
6.568,-0.195
6.57,-0.275
6.572,-0.3
6.574,-0.34
6.576,-0.215
6.578,-0.1
6.58,0.01
6.582,0.01
6.584,-0.175
6.586,-0.2
6.588,-0.2
6.59,-0.295
6.592,-0.3
6.594,-0.175
6.596,-0.065
6.598,-0.08
6.6,0.05
6.602,-0.04
6.604,-0.115
6.606,-0.18
6.608,-0.18
6.61,-0.315
6.612,-0.305
6.614,-0.22
6.616,-0.09
6.618,-0.13
6.62,-0.055
6.622,0.04
6.624,-0.065
6.626,-0.215
6.628,-0.195
6.63,-0.3
6.632,-0.235
6.634,-0.225
6.636,-0.1
6.638,-0.095
6.64,-0.005
6.642,0.02
6.644,-0.04
6.646,-0.14
6.648,-0.115
6.65,-0.28
6.652,-0.165
6.654,-0.115
6.656,-0.09
6.658,-0.045
6.66,0.055
6.662,-0.02
6.664,-0.09
6.666,-0.215
6.668,-0.14
6.67,-0.17
6.672,-0.175
6.674,-0.14
6.676,-0.075
6.678,-0.035
6.68,0.08
6.682,0.005
6.684,-0.075
6.686,-0.16
6.688,-0.15
6.69,-0.2
6.692,-0.135
6.694,-0.065
6.696,0.01
6.698,0.025
6.7,0.02
6.702,0.15
6.704,0.045
6.706,-0.01
6.708,-0.12
6.71,-0.185
6.712,-0.225
6.714,-0.03
6.716,0.1
6.718,0.08
6.72,0.175
6.722,0.19
6.724,0.115
6.726,0.035
6.728,-0.025
6.73,-0.07
6.732,-0.06
6.734,0.025
6.736,0.1
6.738,0.135
6.74,0.195
6.742,0.13
6.744,0.1
6.746,0.045
6.748,-0.025
6.75,-0.06
6.752,-0.015
6.754,0.05
6.756,0.15
6.758,0.14
6.76,0.15
6.762,0.17
6.764,0.085
6.766,-0.05
6.768,-0.135
6.77,-0.135
6.772,0.05
6.774,0.1
6.776,-0.085
6.778,-0.055
6.78,0.06
6.782,0.03
6.784,-0.07
6.786,-0.14
6.788,-0.225
6.79,-0.285
6.792,-0.285
6.794,-0.145
6.796,-0.13
6.798,-0.095
6.8,-0.115
6.802,-0.14
6.804,-0.21
6.806,-0.175
6.808,-0.27
6.81,-0.305
6.812,-0.25
6.814,-0.15
6.816,-0.125
6.818,-0.08
6.82,-0.06
6.822,-0.12
6.824,-0.26
6.826,-0.23
6.828,-0.3
6.83,-0.305
6.832,-0.25
6.834,-0.205
6.836,-0.17
6.838,-0.085
6.84,-0.07
6.842,-0.105
6.844,-0.225
6.846,-0.215
6.848,-0.245
6.85,-0.315
6.852,-0.28
6.854,-0.16
6.856,-0.135
6.858,-0.06
6.86,-0.055
6.862,-0.15
6.864,-0.265
6.866,-0.225
6.868,-0.345
6.87,-0.32
6.872,-0.325
6.874,-0.2
6.876,-0.085
6.878,-0.07
6.88,-0.015
6.882,-0.105
6.884,-0.2
6.886,-0.24
6.888,-0.28
6.89,-0.29
6.892,-0.26
6.894,-0.2
6.896,-0.19
6.898,-0.07
6.9,-0.06
6.902,-0.145
6.904,-0.26
6.906,-0.26
6.908,-0.3
6.91,-0.255
6.912,-0.21
6.914,-0.19
6.916,-0.135
6.918,-0.08
6.92,-0.065
6.922,-0.085
6.924,-0.19
6.926,-0.195
6.928,-0.31
6.93,-0.265
6.932,-0.29
6.934,-0.205
6.936,-0.18
6.938,-0.04
6.94,-0.07
6.942,-0.135
6.944,-0.185
6.946,-0.22
6.948,-0.325
6.95,-0.29
6.952,-0.215
6.954,-0.17
6.956,-0.085
6.958,-0.015
6.96,-0.01
6.962,-0.095
6.964,-0.17
6.966,-0.21
6.968,-0.35
6.97,-0.335
6.972,-0.18
6.974,-0.15
6.976,-0.135
6.978,0
6.98,-0.09
6.982,-0.12
6.984,-0.245
6.986,-0.305
6.988,-0.32
6.99,-0.255
6.992,-0.21
6.994,-0.12
6.996,-0.145
6.998,-0.13
7,-0.07
7.002,-0.13
7.004,-0.195
7.006,-0.25
7.008,-0.38
7.01,-0.32
7.012,-0.23
7.014,-0.195
7.016,-0.055
7.018,-0.085
7.02,-0.03
7.022,-0.07
7.024,-0.21
7.026,-0.34
7.028,-0.35
7.03,-0.295
7.032,-0.215
7.034,-0.185
7.036,-0.06
7.038,0.015
7.04,-0.075
7.042,-0.16
7.044,-0.21
7.046,-0.29
7.048,-0.265
7.05,-0.27
7.052,-0.275
7.054,-0.185
7.056,-0.08
7.058,-0.065
7.06,-0.07
7.062,-0.09
7.064,-0.215
7.066,-0.34
7.068,-0.34
7.07,-0.255
7.072,-0.175
7.074,-0.1
7.076,-0.155
7.078,-0.065
7.08,-0.125
7.082,-0.23
7.084,-0.22
7.086,-0.325
7.088,-0.315
7.09,-0.27
7.092,-0.235
7.094,-0.175
7.096,-0.09
7.098,-0.04
7.1,-0.115
7.102,-0.155
7.104,-0.105
7.106,-0.235
7.108,-0.29
7.11,-0.265
7.112,-0.17
7.114,-0.135
7.116,-0.06
7.118,-0.025
7.12,-0.095
7.122,-0.155
7.124,-0.19
7.126,-0.315
7.128,-0.285
7.13,-0.15
7.132,-0.055
7.134,-0.065
7.136,-0.035
7.138,-0.045
7.14,-0.02
7.142,-0.14
7.144,-0.21
7.146,-0.27
7.148,-0.33
7.15,-0.175
7.152,-0.14
7.154,-0.16
7.156,-0.095
7.158,-0.06
7.16,-0.125
7.162,-0.12
7.164,-0.18
7.166,-0.34
7.168,-0.255
7.17,-0.21
7.172,-0.175
7.174,-0.14
7.176,0
7.178,-0.1
7.18,-0.075
7.182,-0.165
7.184,-0.27
7.186,-0.41
7.188,-0.325
7.19,-0.25
7.192,-0.195
7.194,-0.18
7.196,-0.065
7.198,-0.065
7.2,-0.13
7.202,-0.205
7.204,-0.225
7.206,-0.38
7.208,-0.29
7.21,-0.205
7.212,-0.15
7.214,-0.195
7.216,-0.035
7.218,-0.005
7.22,-0.075
7.222,-0.14
7.224,-0.165
7.226,-0.225
7.228,-0.255
7.23,-0.31
7.232,-0.19
7.234,-0.12
7.236,-0.07
7.238,-0.12
7.24,-0.11
7.242,-0.125
7.244,-0.11
7.246,-0.175
7.248,-0.08
7.25,0
7.252,0.035
7.254,0.025
7.256,0.095
7.258,0.19
7.26,0.18
7.262,0.015
7.264,-0.015
7.266,-0.1
7.268,-0.205
7.27,-0.215
7.272,-0.22
7.274,-0.27
7.276,-0.195
7.278,-0.24
7.28,-0.31
7.282,-0.305
7.284,-0.255
7.286,-0.355
7.288,-0.295
7.29,-0.22
7.292,-0.15
7.294,-0.145
7.296,-0.125
7.298,-0.055
7.3,-0.11
7.302,-0.26
7.304,-0.305
7.306,-0.39
7.308,-0.25
7.31,-0.18
7.312,-0.105
7.314,-0.135
7.316,-0.11
7.318,-0.04
7.32,-0.12
7.322,-0.22
7.324,-0.26
7.326,-0.335
7.328,-0.28
7.33,-0.26
7.332,-0.21
7.334,-0.085
7.336,-0.065
7.338,-0.01
7.34,-0.155
7.342,-0.255
7.344,-0.23
7.346,-0.32
7.348,-0.35
7.35,-0.32
7.352,-0.22
7.354,-0.085
7.356,-0.06
7.358,-0.12
7.36,-0.24
7.362,-0.2
7.364,-0.21
7.366,-0.255
7.368,-0.27
7.37,-0.07
7.372,-0.06
7.374,-0.035
7.376,-0.055
7.378,-0.05
7.38,-0.125
7.382,-0.235
7.384,-0.245
7.386,-0.22
7.388,-0.23
7.39,-0.185
7.392,-0.105
7.394,0.045
7.396,-0.035
7.398,-0.05
7.4,-0.105
7.402,-0.175
7.404,-0.25
7.406,-0.34
7.408,-0.295
7.41,-0.16
7.412,-0.09
7.414,-0.02
7.416,0.02
7.418,0.055
7.42,-0.06
7.422,-0.125
7.424,-0.245
7.426,-0.29
7.428,-0.275
7.43,-0.16
7.432,-0.11
7.434,0.07
7.436,0.055
7.438,-0.055
7.44,-0.085
7.442,-0.085
7.444,-0.185
7.446,-0.185
7.448,-0.135
7.45,-0.05
7.452,-0.055
7.454,0.105
7.456,0.12
7.458,0.07
7.46,-0.035
7.462,-0.165
7.464,-0.28
7.466,-0.16
7.468,-0.085
7.47,-0.025
7.472,0.06
7.474,0.155
7.476,0.185
7.478,0.135
7.48,0.06
7.482,-0.035
7.484,-0.105
7.486,-0.1
7.488,-0.025
7.49,0.075
7.492,0.04
7.494,0.195
7.496,0.205
7.498,0.105
7.5,-0.045
7.502,0.005
7.504,-0.105
7.506,-0.07
7.508,-0.025
7.51,0.055
7.512,0.1
7.514,0.17
7.516,0.15
7.518,0.08
7.52,0
7.522,-0.005
7.524,-0.04
7.526,-0.185
7.528,-0.17
7.53,-0.12
7.532,0
7.534,0.145
7.536,0.1
7.538,-0.02
7.54,-0.1
7.542,-0.115
7.544,-0.21
7.546,-0.335
7.548,-0.24
7.55,-0.185
7.552,-0.125
7.554,0.015
7.556,-0.035
7.558,-0.13
7.56,-0.23
7.562,-0.28
7.564,-0.305
7.566,-0.285
7.568,-0.2
7.57,-0.135
7.572,-0.165
7.574,-0.13
7.576,-0.09
7.578,-0.175
7.58,-0.29
7.582,-0.295
7.584,-0.31
7.586,-0.345
7.588,-0.25
7.59,-0.205
7.592,-0.18
7.594,-0.17
7.596,-0.135
7.598,-0.13
7.6,-0.21
7.602,-0.33
7.604,-0.365
7.606,-0.365
7.608,-0.26
7.61,-0.245
7.612,-0.19
7.614,-0.055
7.616,-0.09
7.618,-0.235
7.62,-0.325
7.622,-0.295
7.624,-0.285
7.626,-0.3
7.628,-0.255
7.63,-0.04
7.632,-0.1
7.634,-0.135
7.636,-0.21
7.638,-0.205
7.64,-0.285
7.642,-0.29
7.644,-0.295
7.646,-0.325
7.648,-0.32
7.65,-0.2
7.652,-0.065
7.654,-0.075
7.656,-0.145
7.658,-0.2
7.66,-0.26
7.662,-0.315
7.664,-0.42
7.666,-0.425
7.668,-0.3
7.67,-0.175
7.672,-0.085
7.674,-0.055
7.676,-0.045
7.678,-0.16
7.68,-0.305
7.682,-0.35
7.684,-0.33
7.686,-0.28
7.688,-0.2
7.69,-0.185
7.692,-0.12
7.694,-0.13
7.696,-0.085
7.698,-0.3
7.7,-0.38
7.702,-0.4
7.704,-0.335
7.706,-0.3
7.708,-0.17
7.71,-0.135
7.712,-0.105
7.714,-0.12
7.716,-0.145
7.718,-0.195
7.72,-0.28
7.722,-0.39
7.724,-0.305
7.726,-0.295
7.728,-0.29
7.73,-0.25
7.732,-0.075
7.734,-0.14
7.736,-0.09
7.738,-0.205
7.74,-0.235
7.742,-0.305
7.744,-0.35
7.746,-0.32
7.748,-0.225
7.75,-0.265
7.752,-0.08
7.754,-0.08
7.756,-0.145
7.758,-0.245
7.76,-0.335
7.762,-0.435
7.764,-0.375
7.766,-0.3
7.768,-0.25
7.77,-0.2
7.772,-0.09
7.774,-0.095
7.776,-0.115
7.778,-0.245
7.78,-0.275
7.782,-0.35
7.784,-0.415
7.786,-0.33
7.788,-0.23
7.79,-0.205
7.792,-0.14
7.794,-0.115
7.796,-0.19
7.798,-0.255
7.8,-0.3
7.802,-0.38
7.804,-0.37
7.806,-0.31
7.808,-0.26
7.81,-0.265
7.812,-0.085
7.814,-0.08
7.816,-0.125
7.818,-0.305
7.82,-0.305
7.822,-0.4
7.824,-0.365
7.826,-0.33
7.828,-0.235
7.83,-0.19
7.832,-0.095
7.834,-0.04
7.836,-0.155
7.838,-0.255
7.84,-0.26
7.842,-0.355
7.844,-0.275
7.846,-0.175
7.848,-0.15
7.85,-0.115
7.852,-0.075
7.854,-0.08
7.856,-0.215
7.858,-0.335
7.86,-0.275
7.862,-0.35
7.864,-0.32
7.866,-0.245
7.868,-0.14
7.87,-0.165
7.872,-0.125
7.874,-0.105
7.876,-0.145
7.878,-0.25
7.88,-0.29
7.882,-0.325
7.884,-0.34
7.886,-0.285
7.888,-0.24
7.89,-0.18
7.892,-0.115
7.894,-0.14
7.896,-0.21
7.898,-0.3
7.9,-0.345
7.902,-0.47
7.904,-0.47
7.906,-0.445
7.908,-0.23
7.91,-0.155
7.912,-0.135
7.914,-0.15
7.916,-0.185
7.918,-0.325
7.92,-0.39
7.922,-0.475
7.924,-0.395
7.926,-0.31
7.928,-0.175
7.93,-0.135
7.932,-0.105
7.934,-0.215
7.936,-0.28
7.938,-0.305
7.94,-0.305
7.942,-0.355
7.944,-0.32
7.946,-0.265
7.948,-0.215
7.95,-0.15
7.952,-0.065
7.954,-0.145
7.956,-0.23
7.958,-0.26
7.96,-0.335
7.962,-0.24
7.964,-0.135
7.966,-0.02
7.968,-0.03
7.97,0.04
7.972,0.05
7.974,0.085
7.976,0.07
7.978,-0.07
7.98,-0.175
7.982,-0.145
7.984,-0.135
7.986,-0.085
7.988,-0.145
7.99,-0.15
7.992,-0.255
7.994,-0.435
7.996,-0.405
7.998,-0.435
8,-0.525
8.002,-0.44
8.004,-0.4
8.006,-0.335
8.008,-0.23
8.01,-0.2
8.012,-0.23
8.014,-0.235
8.016,-0.26
8.018,-0.25
8.02,-0.395
8.022,-0.335
8.024,-0.3
8.026,-0.26
8.028,-0.27
8.03,-0.145
8.032,-0.18
8.034,-0.25
8.036,-0.315
8.038,-0.34
8.04,-0.415
8.042,-0.3
8.044,-0.295
8.046,-0.245
8.048,-0.15
8.05,-0.1
8.052,-0.185
8.054,-0.23
8.056,-0.36
8.058,-0.355
8.06,-0.475
8.062,-0.475
8.064,-0.385
8.066,-0.275
8.068,-0.225
8.07,-0.09
8.072,-0.15
8.074,-0.205
8.076,-0.225
8.078,-0.265
8.08,-0.39
8.082,-0.325
8.084,-0.295
8.086,-0.22
8.088,-0.245
8.09,-0.14
8.092,-0.165
8.094,-0.23
8.096,-0.275
8.098,-0.37
8.1,-0.415
8.102,-0.34
8.104,-0.29
8.106,-0.2
8.108,-0.22
8.11,-0.12
8.112,-0.1
8.114,-0.19
8.116,-0.355
8.118,-0.21
8.12,-0.265
8.122,-0.36
8.124,-0.27
8.126,-0.19
8.128,-0.115
8.13,-0.085
8.132,-0.06
8.134,-0.15
8.136,-0.245
8.138,-0.295
8.14,-0.35
8.142,-0.36
8.144,-0.26
8.146,-0.215
8.148,-0.145
8.15,-0.08
8.152,-0.095
8.154,-0.08
8.156,-0.17
8.158,-0.245
8.16,-0.3
8.162,-0.225
8.164,-0.195
8.166,-0.08
8.168,-0.115
8.17,-0.14
8.172,-0.14
8.174,-0.135
8.176,-0.12
8.178,-0.16
8.18,-0.225
8.182,-0.22
8.184,-0.175
8.186,-0.075
8.188,0.05
8.19,0.08
8.192,0.08
8.194,0.02
8.196,-0.085
8.198,-0.195
8.2,-0.225
8.202,-0.17
8.204,-0.08
8.206,-0.025
8.208,0.105
8.21,0.16
8.212,0.085
8.214,-0.05
8.216,-0.105
8.218,-0.11
8.22,-0.185
8.222,-0.15
8.224,-0.065
8.226,0.02
8.228,0.09
8.23,0.08
8.232,0.095
8.234,-0.075
8.236,-0.11
8.238,-0.21
8.24,-0.18
8.242,-0.195
8.244,-0.135
8.246,-0.055
8.248,-0.065
8.25,-0.05
8.252,-0.05
8.254,-0.11
8.256,-0.31
8.258,-0.385
8.26,-0.355
8.262,-0.39
8.264,-0.27
8.266,-0.235
8.268,-0.14
8.27,-0.085
8.272,-0.1
8.274,-0.275
8.276,-0.37
8.278,-0.425
8.28,-0.375
8.282,-0.355
8.284,-0.245
8.286,-0.25
8.288,-0.13
8.29,-0.145
8.292,-0.2
8.294,-0.275
8.296,-0.365
8.298,-0.515
8.3,-0.425
8.302,-0.315
8.304,-0.305
8.306,-0.29
8.308,-0.23
8.31,-0.21
8.312,-0.24
8.314,-0.3
8.316,-0.355
8.318,-0.42
8.32,-0.345
8.322,-0.34
8.324,-0.29
8.326,-0.26
8.328,-0.19
8.33,-0.25
8.332,-0.255
8.334,-0.315
8.336,-0.395
8.338,-0.52
8.34,-0.395
8.342,-0.345
8.344,-0.295
8.346,-0.355
8.348,-0.22
8.35,-0.145
8.352,-0.23
8.354,-0.28
8.356,-0.355
8.358,-0.47
8.36,-0.44
8.362,-0.375
8.364,-0.285
8.366,-0.26
8.368,-0.125
8.37,-0.23
8.372,-0.29
8.374,-0.315
8.376,-0.335
8.378,-0.455
8.38,-0.45
8.382,-0.38
8.384,-0.34
8.386,-0.33
8.388,-0.145
8.39,-0.07
8.392,-0.165
8.394,-0.375
8.396,-0.28
8.398,-0.425
8.4,-0.445
8.402,-0.355
8.404,-0.285
8.406,-0.29
8.408,-0.21
8.41,-0.24
8.412,-0.23
8.414,-0.34
8.416,-0.415
8.418,-0.49
8.42,-0.395
8.422,-0.38
8.424,-0.305
8.426,-0.25
8.428,-0.155
8.43,-0.18
8.432,-0.26
8.434,-0.36
8.436,-0.37
8.438,-0.44
8.44,-0.435
8.442,-0.375
8.444,-0.305
8.446,-0.2
8.448,-0.15
8.45,-0.05
8.452,-0.185
8.454,-0.32
8.456,-0.315
8.458,-0.435
8.46,-0.485
8.462,-0.415
8.464,-0.33
8.466,-0.325
8.468,-0.195
8.47,-0.22
8.472,-0.255
8.474,-0.36
8.476,-0.365
8.478,-0.38
8.48,-0.365
8.482,-0.3
8.484,-0.29
8.486,-0.23
8.488,-0.2
8.49,-0.17
8.492,-0.255
8.494,-0.35
8.496,-0.37
8.498,-0.515
8.5,-0.405
8.502,-0.345
8.504,-0.255
8.506,-0.22
8.508,-0.25
8.51,-0.205
8.512,-0.32
8.514,-0.395
8.516,-0.445
8.518,-0.485
8.52,-0.445
8.522,-0.345
8.524,-0.33
8.526,-0.21
8.528,-0.175
8.53,-0.16
8.532,-0.26
8.534,-0.355
8.536,-0.45
8.538,-0.525
8.54,-0.46
8.542,-0.365
8.544,-0.28
8.546,-0.14
8.548,-0.16
8.55,-0.25
8.552,-0.32
8.554,-0.365
8.556,-0.44
8.558,-0.47
8.56,-0.38
8.562,-0.305
8.564,-0.24
8.566,-0.205
8.568,-0.24
8.57,-0.2
8.572,-0.27
8.574,-0.355
8.576,-0.47
8.578,-0.42
8.58,-0.39
8.582,-0.335
8.584,-0.245
8.586,-0.18
8.588,-0.23
8.59,-0.275
8.592,-0.325
8.594,-0.34
8.596,-0.44
8.598,-0.51
8.6,-0.405
8.602,-0.32
8.604,-0.255
8.606,-0.17
8.608,-0.27
8.61,-0.26
8.612,-0.32
8.614,-0.455
8.616,-0.46
8.618,-0.465
8.62,-0.43
8.622,-0.29
8.624,-0.275
8.626,-0.19
8.628,-0.115
8.63,-0.175
8.632,-0.28
8.634,-0.38
8.636,-0.465
8.638,-0.43
8.64,-0.3
8.642,-0.22
8.644,-0.22
8.646,-0.155
8.648,-0.165
8.65,-0.29
8.652,-0.355
8.654,-0.29
8.656,-0.38
8.658,-0.395
8.66,-0.32
8.662,-0.29
8.664,-0.295
8.666,-0.075
8.668,-0.12
8.67,-0.18
8.672,-0.33
8.674,-0.385
8.676,-0.405
8.678,-0.355
8.68,-0.325
8.682,-0.245
8.684,-0.18
8.686,-0.07
8.688,-0.19
8.69,-0.32
8.692,-0.465
8.694,-0.42
8.696,-0.46
8.698,-0.42
8.7,-0.365
8.702,-0.39
8.704,-0.315
8.706,-0.185
8.708,-0.23
8.71,-0.26
8.712,-0.295
8.714,-0.375
8.716,-0.535
8.718,-0.525
8.72,-0.435
8.722,-0.32
8.724,-0.23
8.726,-0.185
8.728,-0.27
8.73,-0.315
8.732,-0.38
8.734,-0.415
8.736,-0.465
8.738,-0.4
8.74,-0.32
8.742,-0.27
8.744,-0.235
8.746,-0.155
8.748,-0.235
8.75,-0.3
8.752,-0.325
8.754,-0.31
8.756,-0.405
8.758,-0.42
8.76,-0.21
8.762,-0.13
8.764,-0.015
8.766,0.085
8.768,0.055
8.77,-0.04
8.772,-0.15
8.774,-0.195
8.776,-0.165
8.778,-0.215
8.78,-0.125
8.782,0.03
8.784,0.075
8.786,0.005
8.788,-0.195
8.79,-0.295
8.792,-0.43
8.794,-0.56
8.796,-0.59
8.798,-0.52
8.8,-0.43
8.802,-0.28
8.804,-0.2
8.806,-0.195
8.808,-0.2
8.81,-0.335
8.812,-0.445
8.814,-0.52
8.816,-0.52
8.818,-0.505
8.82,-0.45
8.822,-0.255
8.824,-0.19
8.826,-0.235
8.828,-0.195
8.83,-0.28
8.832,-0.345
8.834,-0.48
8.836,-0.455
8.838,-0.445
8.84,-0.33
8.842,-0.245
8.844,-0.155
8.846,-0.125
8.848,-0.27
8.85,-0.365
8.852,-0.32
8.854,-0.415
8.856,-0.46
8.858,-0.395
8.86,-0.305
8.862,-0.3
8.864,-0.165
8.866,-0.22
8.868,-0.255
8.87,-0.32
8.872,-0.415
8.874,-0.465
8.876,-0.405
8.878,-0.35
8.88,-0.355
8.882,-0.265
8.884,-0.11
8.886,-0.205
8.888,-0.23
8.89,-0.3
8.892,-0.37
8.894,-0.5
8.896,-0.465
8.898,-0.415
8.9,-0.28
8.902,-0.215
8.904,-0.065
8.906,-0.115
8.908,-0.18
8.91,-0.27
8.912,-0.365
8.914,-0.54
8.916,-0.435
8.918,-0.35
8.92,-0.32
8.922,-0.27
8.924,-0.105
8.926,-0.09
8.928,-0.185
8.93,-0.265
8.932,-0.285
8.934,-0.38
8.936,-0.405
8.938,-0.36
8.94,-0.23
8.942,-0.17
8.944,-0.085
8.946,-0.1
8.948,-0.19
8.95,-0.29
8.952,-0.295
8.954,-0.385
8.956,-0.33
8.958,-0.315
8.96,-0.18
8.962,-0.165
8.964,-0.11
8.966,-0.095
8.968,-0.1
8.97,-0.165
8.972,-0.265
8.974,-0.34
8.976,-0.285
8.978,-0.27
8.98,-0.185
8.982,-0.11
8.984,0
8.986,-0.025
8.988,-0.035
8.99,-0.085
8.992,-0.205
8.994,-0.265
8.996,-0.255
8.998,-0.26
9,-0.125
9.002,-0.125
9.004,0.065
9.006,0.06
9.008,-0.02
9.01,-0.035
9.012,-0.08
9.014,-0.205
9.016,-0.19
9.018,-0.1
9.02,-0.02
9.022,-0.04
9.024,0.075
9.026,0.035
9.028,0.075
9.03,-0.085
9.032,-0.15
9.034,-0.315
9.036,-0.245
9.038,-0.195
9.04,-0.125
9.042,-0.075
9.044,-0.035
9.046,-0.005
9.048,-0.125
9.05,-0.2
9.052,-0.23
9.054,-0.28
9.056,-0.35
9.058,-0.305
9.06,-0.13
9.062,-0.195
9.064,-0.17
9.066,-0.175
9.068,-0.205
9.07,-0.36
9.072,-0.405
9.074,-0.49
9.076,-0.41
9.078,-0.315
9.08,-0.245
9.082,-0.115
9.084,-0.13
9.086,-0.19
9.088,-0.275
9.09,-0.345
9.092,-0.44
9.094,-0.495
9.096,-0.5
9.098,-0.385
9.1,-0.235
9.102,-0.205
9.104,-0.155
9.106,-0.22
9.108,-0.3
9.11,-0.35
9.112,-0.445
9.114,-0.495
9.116,-0.45
9.118,-0.4
9.12,-0.31
9.122,-0.175
9.124,-0.2
9.126,-0.2
9.128,-0.285
9.13,-0.445
9.132,-0.43
9.134,-0.42
9.136,-0.415
9.138,-0.395
9.14,-0.31
9.142,-0.205
9.144,-0.21
9.146,-0.315
9.148,-0.32
9.15,-0.345
9.152,-0.495
9.154,-0.49
9.156,-0.39
9.158,-0.255
9.16,-0.25
9.162,-0.255
9.164,-0.21
9.166,-0.175
9.168,-0.235
9.17,-0.34
9.172,-0.425
9.174,-0.45
9.176,-0.465
9.178,-0.37
9.18,-0.275
9.182,-0.185
9.184,-0.215
9.186,-0.26
9.188,-0.31
9.19,-0.36
9.192,-0.52
9.194,-0.45
9.196,-0.385
9.198,-0.27
9.2,-0.335
9.202,-0.215
9.204,-0.14
9.206,-0.23
9.208,-0.305
9.21,-0.365
9.212,-0.495
9.214,-0.455
9.216,-0.39
9.218,-0.27
9.22,-0.205
9.222,-0.08
9.224,-0.17
9.226,-0.26
9.228,-0.41
9.23,-0.34
9.232,-0.505
9.234,-0.495
9.236,-0.465
9.238,-0.34
9.24,-0.255
9.242,-0.155
9.244,-0.14
9.246,-0.205
9.248,-0.355
9.25,-0.395
9.252,-0.45
9.254,-0.46
9.256,-0.44
9.258,-0.29
9.26,-0.255
9.262,-0.105
9.264,-0.105
9.266,-0.235
9.268,-0.32
9.27,-0.325
9.272,-0.45
9.274,-0.43
9.276,-0.395
9.278,-0.32
9.28,-0.28
9.282,-0.2
9.284,-0.23
9.286,-0.255
9.288,-0.325
9.29,-0.375
9.292,-0.53
9.294,-0.445
9.296,-0.36
9.298,-0.265
9.3,-0.25
9.302,-0.14
9.304,-0.175
9.306,-0.265
9.308,-0.32
9.31,-0.34
9.312,-0.485
9.314,-0.485
9.316,-0.355
9.318,-0.265
9.32,-0.28
9.322,-0.24
9.324,-0.255
9.326,-0.215
9.328,-0.26
9.33,-0.35
9.332,-0.395
9.334,-0.39
9.336,-0.39
9.338,-0.305
9.34,-0.245
9.342,-0.2
9.344,-0.27
9.346,-0.24
9.348,-0.36
9.35,-0.455
9.352,-0.45
9.354,-0.395
9.356,-0.315
9.358,-0.275
9.36,-0.21
9.362,-0.13
9.364,-0.18
9.366,-0.23
9.368,-0.355
9.37,-0.455
9.372,-0.435
9.374,-0.355
9.376,-0.405
9.378,-0.26
9.38,-0.195
9.382,-0.24
9.384,-0.2
9.386,-0.295
9.388,-0.37
9.39,-0.41
9.392,-0.445
9.394,-0.385
9.396,-0.35
9.398,-0.3
9.4,-0.26
9.402,-0.175
9.404,-0.235
9.406,-0.335
9.408,-0.225
9.41,-0.39
9.412,-0.425
9.414,-0.325
9.416,-0.305
9.418,-0.235
9.42,-0.215
9.422,-0.225
9.424,-0.195
9.426,-0.28
9.428,-0.3
9.43,-0.36
9.432,-0.485
9.434,-0.4
9.436,-0.31
9.438,-0.215
9.44,-0.18
9.442,-0.145
9.444,-0.21
9.446,-0.285
9.448,-0.27
9.45,-0.345
9.452,-0.38
9.454,-0.33
9.456,-0.205
9.458,-0.17
9.46,-0.12
9.462,-0.11
9.464,-0.145
9.466,-0.285
9.468,-0.285
9.47,-0.365
9.472,-0.34
9.474,-0.3
9.476,-0.28
9.478,-0.285
9.48,-0.15
9.482,-0.16
9.484,-0.245
9.486,-0.315
9.488,-0.34
9.49,-0.405
9.492,-0.385
9.494,-0.405
9.496,-0.325
9.498,-0.28
9.5,-0.135
9.502,-0.135
9.504,-0.18
9.506,-0.29
9.508,-0.325
9.51,-0.465
9.512,-0.395
9.514,-0.33
9.516,-0.29
9.518,-0.305
9.52,-0.19
9.522,-0.205
9.524,-0.27
9.526,-0.285
9.528,-0.38
9.53,-0.535
9.532,-0.45
9.534,-0.38
9.536,-0.215
9.538,-0.235
9.54,-0.11
9.542,-0.17
9.544,-0.14
9.546,-0.345
9.548,-0.33
9.55,-0.385
9.552,-0.37
9.554,-0.355
9.556,-0.23
9.558,-0.195
9.56,-0.14
9.562,-0.15
9.564,-0.245
9.566,-0.31
9.568,-0.27
9.57,-0.33
9.572,-0.29
9.574,-0.25
9.576,-0.215
9.578,-0.125
9.58,0.03
9.582,0.015
9.584,0.04
9.586,-0.05
9.588,-0.12
9.59,-0.2
9.592,-0.27
9.594,-0.22
9.596,-0.305
9.598,-0.385
9.6,-0.24
9.602,-0.325
9.604,-0.495
9.606,-0.445
9.608,-0.325
9.61,-0.445
9.612,-0.395
9.614,-0.41
9.616,-0.35
9.618,-0.255
9.62,-0.155
9.622,-0.22
9.624,-0.27
9.626,-0.335
9.628,-0.415
9.63,-0.46
9.632,-0.395
9.634,-0.395
9.636,-0.305
9.638,-0.22
9.64,-0.16
9.642,-0.18
9.644,-0.315
9.646,-0.325
9.648,-0.405
9.65,-0.45
9.652,-0.445
9.654,-0.38
9.656,-0.275
9.658,-0.17
9.66,-0.175
9.662,-0.16
9.664,-0.21
9.666,-0.34
9.668,-0.345
9.67,-0.51
9.672,-0.385
9.674,-0.25
9.676,-0.255
9.678,-0.18
9.68,-0.205
9.682,-0.185
9.684,-0.265
9.686,-0.345
9.688,-0.33
9.69,-0.365
9.692,-0.4
9.694,-0.31
9.696,-0.18
9.698,-0.135
9.7,-0.125
9.702,-0.165
9.704,-0.285
9.706,-0.3
9.708,-0.37
9.71,-0.45
9.712,-0.42
9.714,-0.28
9.716,-0.245
9.718,-0.16
9.72,-0.14
9.722,-0.125
9.724,-0.295
9.726,-0.3
9.728,-0.345
9.73,-0.305
9.732,-0.385
9.734,-0.345
9.736,-0.165
9.738,-0.065
9.74,-0.1
9.742,-0.155
9.744,-0.26
9.746,-0.22
9.748,-0.31
9.75,-0.375
9.752,-0.3
9.754,-0.235
9.756,-0.18
9.758,-0.05
9.76,-0.07
9.762,-0.085
9.764,-0.215
9.766,-0.25
9.768,-0.38
9.77,-0.35
9.772,-0.295
9.774,-0.18
9.776,-0.08
9.778,-0.08
9.78,-0.08
9.782,-0.095
9.784,-0.175
9.786,-0.205
9.788,-0.33
9.79,-0.26
9.792,-0.185
9.794,-0.095
9.796,-0.085
9.798,0.025
9.8,-0.005
9.802,-0.025
9.804,-0.06
9.806,-0.14
9.808,-0.23
9.81,-0.195
9.812,-0.15
9.814,-0.1
9.816,-0.01
9.818,0.075
9.82,0.11
9.822,0.05
9.824,-0.055
9.826,-0.095
9.828,-0.18
9.83,-0.14
9.832,-0.155
9.834,-0.065
9.836,-0.06
9.838,0.055
9.84,0.065
9.842,-0.065
9.844,-0.16
9.846,-0.155
9.848,-0.23
9.85,-0.19
9.852,-0.185
9.854,-0.185
9.856,-0.14
9.858,-0.005
9.86,-0.055
9.862,-0.125
9.864,-0.19
9.866,-0.28
9.868,-0.355
9.87,-0.415
9.872,-0.235
9.874,-0.2
9.876,-0.255
9.878,-0.12
9.88,-0.12
9.882,-0.2
9.884,-0.36
9.886,-0.34
9.888,-0.42
9.89,-0.46
9.892,-0.345
9.894,-0.26
9.896,-0.215
9.898,-0.125
9.9,-0.195
9.902,-0.265
9.904,-0.3
9.906,-0.37
9.908,-0.445
9.91,-0.395
9.912,-0.27
9.914,-0.235
9.916,-0.27
9.918,-0.205
9.92,-0.22
9.922,-0.445
9.924,-0.45
9.926,-0.395
9.928,-0.465
9.93,-0.475
9.932,-0.345
9.934,-0.27
9.936,-0.28
9.938,-0.21
9.94,-0.285
9.942,-0.27
9.944,-0.33
9.946,-0.415
9.948,-0.54
9.95,-0.455
9.952,-0.4
9.954,-0.34
9.956,-0.25
9.958,-0.17
9.96,-0.13
9.962,-0.24
9.964,-0.38
9.966,-0.455
9.968,-0.44
9.97,-0.435
9.972,-0.325
9.974,-0.28
9.976,-0.185
9.978,-0.22
9.98,-0.24
9.982,-0.26
9.984,-0.32
9.986,-0.435
9.988,-0.5
9.99,-0.455
9.992,-0.375
9.994,-0.255
9.996,-0.245
9.998,-0.2
