0,-0.38
0.002,-0.36
0.004,-0.34
0.006,-0.26
0.008,-0.395
0.01,-0.49
0.012,-0.555
0.014,-0.605
0.016,-0.565
0.018,-0.45
0.02,-0.33
0.022,-0.29
0.024,-0.345
0.026,-0.395
0.028,-0.485
0.03,-0.51
0.032,-0.535
0.034,-0.505
0.036,-0.475
0.038,-0.42
0.04,-0.375
0.042,-0.355
0.044,-0.365
0.046,-0.375
0.048,-0.47
0.05,-0.51
0.052,-0.545
0.054,-0.525
0.056,-0.49
0.058,-0.455
0.06,-0.475
0.062,-0.41
0.064,-0.425
0.066,-0.48
0.068,-0.51
0.07,-0.535
0.072,-0.57
0.074,-0.575
0.076,-0.565
0.078,-0.44
0.08,-0.38
0.082,-0.33
0.084,-0.295
0.086,-0.285
0.088,-0.295
0.09,-0.265
0.092,-0.295
0.094,-0.27
0.096,-0.19
0.098,-0.08
0.1,-0.045
0.102,-0.015
0.104,-0.07
0.106,-0.185
0.108,-0.36
0.11,-0.51
0.112,-0.71
0.114,-0.715
0.116,-0.755
0.118,-0.745
0.12,-0.765
0.122,-0.805
0.124,-0.905
0.126,-1.02
0.128,-1.115
0.13,-1.115
0.132,-1.175
0.134,-1.05
0.136,-0.92
0.138,-0.81
0.14,-0.75
0.142,-0.64
0.144,-0.6
0.146,-0.605
0.148,-0.645
0.15,-0.635
0.152,-0.665
0.154,-0.625
0.156,-0.55
0.158,-0.455
0.16,-0.435
0.162,-0.35
0.164,-0.37
0.166,-0.445
0.168,-0.505
0.17,-0.515
0.172,-0.555
0.174,-0.475
0.176,-0.39
0.178,-0.305
0.18,-0.3
0.182,-0.26
0.184,-0.285
0.186,-0.345
0.188,-0.455
0.19,-0.45
0.192,-0.59
0.194,-0.57
0.196,-0.455
0.198,-0.355
0.2,-0.31
0.202,-0.245
0.204,-0.275
0.206,-0.345
0.208,-0.415
0.21,-0.435
0.212,-0.5
0.214,-0.485
0.216,-0.38
0.218,-0.335
0.22,-0.345
0.222,-0.295
0.224,-0.32
0.226,-0.36
0.228,-0.375
0.23,-0.365
0.232,-0.425
0.234,-0.4
0.236,-0.33
0.238,-0.28
0.24,-0.24
0.242,-0.2
0.244,-0.22
0.246,-0.305
0.248,-0.38
0.25,-0.44
0.252,-0.49
0.254,-0.43
0.256,-0.35
0.258,-0.345
0.26,-0.255
0.262,-0.2
0.264,-0.225
0.266,-0.31
0.268,-0.355
0.27,-0.36
0.272,-0.4
0.274,-0.38
0.276,-0.275
0.278,-0.195
0.28,-0.165
0.282,-0.135
0.284,-0.19
0.286,-0.265
0.288,-0.335
0.29,-0.385
0.292,-0.375
0.294,-0.395
0.296,-0.315
0.298,-0.26
0.3,-0.2
0.302,-0.165
0.304,-0.16
0.306,-0.245
0.308,-0.28
0.31,-0.305
0.312,-0.29
0.314,-0.27
0.316,-0.185
0.318,-0.125
0.32,-0.075
0.322,-0.075
0.324,-0.11
0.326,-0.195
0.328,-0.23
0.33,-0.29
0.332,-0.26
0.334,-0.26
0.336,-0.125
0.338,-0.065
0.34,-0.025
0.342,-0.035
0.344,-0.015
0.346,-0.1
0.348,-0.125
0.35,-0.17
0.352,-0.115
0.354,-0.1
0.356,-0.04
0.358,-0.02
0.36,0.025
0.362,0.025
0.364,0
0.366,-0.11
0.368,-0.125
0.37,-0.215
0.372,-0.185
0.374,-0.16
0.376,-0.12
0.378,-0.115
0.38,-0.055
0.382,-0.055
0.384,-0.095
0.386,-0.21
0.388,-0.235
0.39,-0.295
0.392,-0.26
0.394,-0.235
0.396,-0.15
0.398,-0.14
0.4,-0.1
0.402,-0.135
0.404,-0.205
0.406,-0.27
0.408,-0.32
0.41,-0.385
0.412,-0.405
0.414,-0.41
0.416,-0.3
0.418,-0.29
0.42,-0.255
0.422,-0.32
0.424,-0.36
0.426,-0.43
0.428,-0.44
0.43,-0.51
0.432,-0.5
0.434,-0.48
0.436,-0.42
0.438,-0.44
0.44,-0.41
0.442,-0.4
0.444,-0.37
0.446,-0.445
0.448,-0.43
0.45,-0.545
0.452,-0.55
0.454,-0.49
0.456,-0.41
0.458,-0.37
0.46,-0.37
0.462,-0.37
0.464,-0.38
0.466,-0.45
0.468,-0.5
0.47,-0.57
0.472,-0.535
0.474,-0.485
0.476,-0.43
0.478,-0.435
0.48,-0.34
0.482,-0.345
0.484,-0.395
0.486,-0.435
0.488,-0.495
0.49,-0.56
0.492,-0.525
0.494,-0.465
0.496,-0.4
0.498,-0.39
0.5,-0.35
0.502,-0.395
0.504,-0.44
0.506,-0.49
0.508,-0.475
0.51,-0.515
0.512,-0.515
0.514,-0.44
0.516,-0.37
0.518,-0.38
0.52,-0.33
0.522,-0.335
0.524,-0.385
0.526,-0.495
0.528,-0.515
0.53,-0.53
0.532,-0.51
0.534,-0.46
0.536,-0.4
0.538,-0.355
0.54,-0.31
0.542,-0.28
0.544,-0.35
0.546,-0.435
0.548,-0.475
0.55,-0.515
0.552,-0.555
0.554,-0.5
0.556,-0.44
0.558,-0.415
0.56,-0.37
0.562,-0.375
0.564,-0.47
0.566,-0.5
0.568,-0.49
0.57,-0.495
0.572,-0.45
0.574,-0.405
0.576,-0.38
0.578,-0.305
0.58,-0.3
0.582,-0.36
0.584,-0.43
0.586,-0.475
0.588,-0.5
0.59,-0.52
0.592,-0.525
0.594,-0.44
0.596,-0.395
0.598,-0.355
0.6,-0.315
0.602,-0.33
0.604,-0.4
0.606,-0.45
0.608,-0.52
0.61,-0.515
0.612,-0.475
0.614,-0.415
0.616,-0.385
0.618,-0.37
0.62,-0.38
0.622,-0.41
0.624,-0.435
0.626,-0.48
0.628,-0.555
0.63,-0.545
0.632,-0.54
0.634,-0.465
0.636,-0.425
0.638,-0.37
0.64,-0.39
0.642,-0.41
0.644,-0.495
0.646,-0.53
0.648,-0.58
0.65,-0.545
0.652,-0.565
0.654,-0.44
0.656,-0.385
0.658,-0.34
0.66,-0.375
0.662,-0.43
0.664,-0.495
0.666,-0.51
0.668,-0.535
0.67,-0.515
0.672,-0.5
0.674,-0.425
0.676,-0.405
0.678,-0.355
0.68,-0.405
0.682,-0.43
0.684,-0.53
0.686,-0.545
0.688,-0.595
0.69,-0.58
0.692,-0.545
0.694,-0.485
0.696,-0.455
0.698,-0.375
0.7,-0.405
0.702,-0.435
0.704,-0.53
0.706,-0.535
0.708,-0.6
0.71,-0.58
0.712,-0.565
0.714,-0.505
0.716,-0.465
0.718,-0.365
0.72,-0.38
0.722,-0.435
0.724,-0.505
0.726,-0.505
0.728,-0.53
0.73,-0.515
0.732,-0.45
0.734,-0.405
0.736,-0.425
0.738,-0.38
0.74,-0.415
0.742,-0.495
0.744,-0.61
0.746,-0.635
0.748,-0.645
0.75,-0.62
0.752,-0.53
0.754,-0.47
0.756,-0.425
0.758,-0.37
0.76,-0.385
0.762,-0.43
0.764,-0.48
0.766,-0.535
0.768,-0.645
0.77,-0.63
0.772,-0.605
0.774,-0.555
0.776,-0.52
0.778,-0.41
0.78,-0.355
0.782,-0.455
0.784,-0.495
0.786,-0.51
0.788,-0.565
0.79,-0.565
0.792,-0.49
0.794,-0.405
0.796,-0.43
0.798,-0.4
0.8,-0.415
0.802,-0.495
0.804,-0.595
0.806,-0.595
0.808,-0.615
0.81,-0.585
0.812,-0.535
0.814,-0.48
0.816,-0.48
0.818,-0.445
0.82,-0.44
0.822,-0.52
0.824,-0.57
0.826,-0.59
0.828,-0.65
0.83,-0.62
0.832,-0.575
0.834,-0.485
0.836,-0.48
0.838,-0.435
0.84,-0.44
0.842,-0.5
0.844,-0.555
0.846,-0.585
0.848,-0.62
0.85,-0.61
0.852,-0.575
0.854,-0.49
0.856,-0.44
0.858,-0.41
0.86,-0.39
0.862,-0.45
0.864,-0.505
0.866,-0.45
0.868,-0.445
0.87,-0.395
0.872,-0.31
0.874,-0.22
0.876,-0.215
0.878,-0.21
0.88,-0.255
0.882,-0.34
0.884,-0.5
0.886,-0.645
0.888,-0.745
0.89,-0.86
0.892,-0.91
0.894,-0.9
0.896,-0.915
0.898,-1
0.9,-1.125
0.902,-1.24
0.904,-1.195
0.906,-1.185
0.908,-1.135
0.91,-1.01
0.912,-0.87
0.914,-0.78
0.916,-0.675
0.918,-0.64
0.92,-0.64
0.922,-0.68
0.924,-0.695
0.926,-0.705
0.928,-0.67
0.93,-0.66
0.932,-0.535
0.934,-0.52
0.936,-0.495
0.938,-0.49
0.94,-0.5
0.942,-0.57
0.944,-0.595
0.946,-0.675
0.948,-0.61
0.95,-0.6
0.952,-0.56
0.954,-0.535
0.956,-0.465
0.958,-0.46
0.96,-0.455
0.962,-0.495
0.964,-0.55
0.966,-0.56
0.968,-0.495
0.97,-0.48
0.972,-0.435
0.974,-0.515
0.976,-0.465
0.978,-0.47
0.98,-0.485
0.982,-0.54
0.984,-0.57
0.986,-0.635
0.988,-0.6
0.99,-0.605
0.992,-0.515
0.994,-0.49
0.996,-0.43
0.998,-0.435
1,-0.465
1.002,-0.545
1.004,-0.525
1.006,-0.59
1.008,-0.53
1.01,-0.51
1.012,-0.485
1.014,-0.42
1.016,-0.36
1.018,-0.41
1.02,-0.44
1.022,-0.495
1.024,-0.515
1.026,-0.58
1.028,-0.555
1.03,-0.545
1.032,-0.45
1.034,-0.435
1.036,-0.375
1.038,-0.34
1.04,-0.38
1.042,-0.45
1.044,-0.48
1.046,-0.565
1.048,-0.52
1.05,-0.45
1.052,-0.38
1.054,-0.395
1.056,-0.315
1.058,-0.325
1.06,-0.355
1.062,-0.41
1.064,-0.42
1.066,-0.47
1.068,-0.455
1.07,-0.465
1.072,-0.405
1.074,-0.365
1.076,-0.3
1.078,-0.32
1.08,-0.35
1.082,-0.385
1.084,-0.4
1.086,-0.455
1.088,-0.42
1.09,-0.345
1.092,-0.225
1.094,-0.27
1.096,-0.22
1.098,-0.21
1.1,-0.245
1.102,-0.295
1.104,-0.325
1.106,-0.405
1.108,-0.38
1.11,-0.3
1.112,-0.24
1.114,-0.245
1.116,-0.205
1.118,-0.175
1.12,-0.225
1.122,-0.33
1.124,-0.325
1.126,-0.37
1.128,-0.33
1.13,-0.25
1.132,-0.205
1.134,-0.14
1.136,-0.08
1.138,-0.105
1.14,-0.18
1.142,-0.225
1.144,-0.235
1.146,-0.28
1.148,-0.295
1.15,-0.255
1.152,-0.2
1.154,-0.175
1.156,-0.15
1.158,-0.185
1.16,-0.28
1.162,-0.375
1.164,-0.38
1.166,-0.41
1.168,-0.405
1.17,-0.345
1.172,-0.3
1.174,-0.275
1.176,-0.23
1.178,-0.31
1.18,-0.41
1.182,-0.495
1.184,-0.565
1.186,-0.56
1.188,-0.535
1.19,-0.485
1.192,-0.43
1.194,-0.43
1.196,-0.435
1.198,-0.475
1.2,-0.54
1.202,-0.575
1.204,-0.65
1.206,-0.685
1.208,-0.67
1.21,-0.58
1.212,-0.515
1.214,-0.45
1.216,-0.485
1.218,-0.515
1.22,-0.56
1.222,-0.575
1.224,-0.64
1.226,-0.66
1.228,-0.635
1.23,-0.555
1.232,-0.56
1.234,-0.5
1.236,-0.475
1.238,-0.545
1.24,-0.655
1.242,-0.69
1.244,-0.74
1.246,-0.735
1.248,-0.71
1.25,-0.62
1.252,-0.56
1.254,-0.53
1.256,-0.545
1.258,-0.575
1.26,-0.645
1.262,-0.695
1.264,-0.785
1.266,-0.735
1.268,-0.715
1.27,-0.625
1.272,-0.52
1.274,-0.44
1.276,-0.495
1.278,-0.57
1.28,-0.635
1.282,-0.655
1.284,-0.73
1.286,-0.705
1.288,-0.675
1.29,-0.615
1.292,-0.58
1.294,-0.51
1.296,-0.525
1.298,-0.565
1.3,-0.625
1.302,-0.625
1.304,-0.7
1.306,-0.68
1.308,-0.65
1.31,-0.6
1.312,-0.555
1.314,-0.495
1.316,-0.525
1.318,-0.57
1.32,-0.64
1.322,-0.705
1.324,-0.76
1.326,-0.71
1.328,-0.67
1.33,-0.58
1.332,-0.59
1.334,-0.45
1.336,-0.46
1.338,-0.53
1.34,-0.615
1.342,-0.625
1.344,-0.705
1.346,-0.68
1.348,-0.66
1.35,-0.585
1.352,-0.545
1.354,-0.45
1.356,-0.47
1.358,-0.54
1.36,-0.6
1.362,-0.605
1.364,-0.74
1.366,-0.775
1.368,-0.745
1.37,-0.66
1.372,-0.64
1.374,-0.535
1.376,-0.525
1.378,-0.55
1.38,-0.665
1.382,-0.685
1.384,-0.715
1.386,-0.705
1.388,-0.61
1.39,-0.57
1.392,-0.615
1.394,-0.52
1.396,-0.54
1.398,-0.59
1.4,-0.65
1.402,-0.7
1.404,-0.765
1.406,-0.78
1.408,-0.695
1.41,-0.605
1.412,-0.61
1.414,-0.545
1.416,-0.575
1.418,-0.65
1.42,-0.685
1.422,-0.67
1.424,-0.73
1.426,-0.75
1.428,-0.7
1.43,-0.635
1.432,-0.615
1.434,-0.54
1.436,-0.52
1.438,-0.57
1.44,-0.65
1.442,-0.71
1.444,-0.755
1.446,-0.74
1.448,-0.68
1.45,-0.62
1.452,-0.605
1.454,-0.565
1.456,-0.6
1.458,-0.64
1.46,-0.74
1.462,-0.78
1.464,-0.805
1.466,-0.785
1.468,-0.68
1.47,-0.625
1.472,-0.585
1.474,-0.58
1.476,-0.58
1.478,-0.655
1.48,-0.67
1.482,-0.715
1.484,-0.795
1.486,-0.805
1.488,-0.745
1.49,-0.675
1.492,-0.585
1.494,-0.585
1.496,-0.615
1.498,-0.7
1.5,-0.79
1.502,-0.85
1.504,-0.795
1.506,-0.74
1.508,-0.675
1.51,-0.63
1.512,-0.58
1.514,-0.585
1.516,-0.61
1.518,-0.7
1.52,-0.74
1.522,-0.76
1.524,-0.73
1.526,-0.71
1.528,-0.65
1.53,-0.635
1.532,-0.575
1.534,-0.605
1.536,-0.655
1.538,-0.75
1.54,-0.725
1.542,-0.78
1.544,-0.78
1.546,-0.77
1.548,-0.685
1.55,-0.65
1.552,-0.59
1.554,-0.59
1.556,-0.64
1.558,-0.69
1.56,-0.735
1.562,-0.815
1.564,-0.795
1.566,-0.77
1.568,-0.695
1.57,-0.67
1.572,-0.59
1.574,-0.575
1.576,-0.63
1.578,-0.73
1.58,-0.74
1.582,-0.82
1.584,-0.805
1.586,-0.785
1.588,-0.76
1.59,-0.7
1.592,-0.585
1.594,-0.55
1.596,-0.59
1.598,-0.705
1.6,-0.755
1.602,-0.79
1.604,-0.785
1.606,-0.8
1.608,-0.765
1.61,-0.75
1.612,-0.67
1.614,-0.695
1.616,-0.76
1.618,-0.825
1.62,-0.81
1.622,-0.85
1.624,-0.81
1.626,-0.73
1.628,-0.635
1.63,-0.625
1.632,-0.6
1.634,-0.6
1.636,-0.625
1.638,-0.665
1.64,-0.7
1.642,-0.82
1.644,-0.85
1.646,-0.795
1.648,-0.73
1.65,-0.755
1.652,-0.66
1.654,-0.685
1.656,-0.745
1.658,-0.77
1.66,-0.73
1.662,-0.83
1.664,-0.825
1.666,-0.73
1.668,-0.665
1.67,-0.675
1.672,-0.635
1.674,-0.635
1.676,-0.675
1.678,-0.755
1.68,-0.745
1.682,-0.83
1.684,-0.84
1.686,-0.76
1.688,-0.705
1.69,-0.7
1.692,-0.62
1.694,-0.615
1.696,-0.74
1.698,-0.79
1.7,-0.755
1.702,-0.805
1.704,-0.84
1.706,-0.855
1.708,-0.775
1.71,-0.73
1.712,-0.665
1.714,-0.665
1.716,-0.73
1.718,-0.805
1.72,-0.875
1.722,-0.865
1.724,-0.86
1.726,-0.78
1.728,-0.685
1.73,-0.685
1.732,-0.655
1.734,-0.685
1.736,-0.735
1.738,-0.79
1.74,-0.795
1.742,-0.815
1.744,-0.815
1.746,-0.735
1.748,-0.695
1.75,-0.68
1.752,-0.68
1.754,-0.66
1.756,-0.765
1.758,-0.84
1.76,-0.845
1.762,-0.83
1.764,-0.82
1.766,-0.715
1.768,-0.675
1.77,-0.655
1.772,-0.67
1.774,-0.675
1.776,-0.765
1.778,-0.815
1.78,-0.86
1.782,-0.885
1.784,-0.865
1.786,-0.815
1.788,-0.71
1.79,-0.64
1.792,-0.64
1.794,-0.645
1.796,-0.725
1.798,-0.775
1.8,-0.805
1.802,-0.82
1.804,-0.8
1.806,-0.74
1.808,-0.73
1.81,-0.71
1.812,-0.695
1.814,-0.69
1.816,-0.76
1.818,-0.84
1.82,-0.905
1.822,-0.895
1.824,-0.87
1.826,-0.79
1.828,-0.755
1.83,-0.68
1.832,-0.61
1.834,-0.6
1.836,-0.715
1.838,-0.76
1.84,-0.835
1.842,-0.8
1.844,-0.74
1.846,-0.71
1.848,-0.69
1.85,-0.615
1.852,-0.61
1.854,-0.65
1.856,-0.76
1.858,-0.81
1.86,-0.89
1.862,-0.83
1.864,-0.805
1.866,-0.71
1.868,-0.685
1.87,-0.61
1.872,-0.64
1.874,-0.69
1.876,-0.75
1.878,-0.775
1.88,-0.84
1.882,-0.825
1.884,-0.825
1.886,-0.75
1.888,-0.735
1.89,-0.655
1.892,-0.675
1.894,-0.715
1.896,-0.805
1.898,-0.82
1.9,-0.88
1.902,-0.82
1.904,-0.77
1.906,-0.78
1.908,-0.765
1.91,-0.67
1.912,-0.685
1.914,-0.72
1.916,-0.825
1.918,-0.825
1.92,-0.88
1.922,-0.835
1.924,-0.78
1.926,-0.69
1.928,-0.71
1.93,-0.62
1.932,-0.605
1.934,-0.655
1.936,-0.73
1.938,-0.765
1.94,-0.82
1.942,-0.73
1.944,-0.645
1.946,-0.57
1.948,-0.515
1.95,-0.465
1.952,-0.465
1.954,-0.48
1.956,-0.565
1.958,-0.615
1.96,-0.74
1.962,-0.77
1.964,-0.775
1.966,-0.8
1.968,-0.88
1.97,-0.82
1.972,-0.855
1.974,-0.935
1.976,-1.07
1.978,-1.16
1.98,-1.295
1.982,-1.37
1.984,-1.31
1.986,-1.225
1.988,-1.15
1.99,-1.035
1.992,-1.015
1.994,-1.02
1.996,-1.01
1.998,-0.96
2,-0.96
2.002,-0.955
2.004,-0.88
2.006,-0.795
2.008,-0.75
2.01,-0.68
2.012,-0.685
2.014,-0.74
2.016,-0.845
2.018,-0.895
2.02,-0.905
2.022,-0.85
2.024,-0.78
2.026,-0.69
2.028,-0.665
2.03,-0.65
2.032,-0.64
2.034,-0.655
2.036,-0.735
2.038,-0.775
2.04,-0.795
2.042,-0.73
2.044,-0.665
2.046,-0.64
2.048,-0.63
2.05,-0.595
2.052,-0.595
2.054,-0.655
2.056,-0.765
2.058,-0.805
2.06,-0.83
2.062,-0.795
2.064,-0.75
2.066,-0.675
2.068,-0.64
2.07,-0.575
2.072,-0.54
2.074,-0.585
2.076,-0.685
2.078,-0.71
2.08,-0.685
2.082,-0.7
2.084,-0.66
2.086,-0.565
2.088,-0.615
2.09,-0.58
2.092,-0.58
2.094,-0.63
2.096,-0.73
2.098,-0.775
2.1,-0.75
2.102,-0.7
2.104,-0.63
2.106,-0.615
2.108,-0.565
2.11,-0.535
2.112,-0.56
2.114,-0.605
2.116,-0.65
2.118,-0.74
2.12,-0.735
2.122,-0.71
2.124,-0.605
2.126,-0.52
2.128,-0.475
2.13,-0.48
2.132,-0.495
2.134,-0.585
2.136,-0.6
2.138,-0.675
2.14,-0.685
2.142,-0.665
2.144,-0.58
2.146,-0.545
2.148,-0.515
2.15,-0.54
2.152,-0.575
2.154,-0.64
2.156,-0.655
2.158,-0.66
2.16,-0.61
2.162,-0.54
2.164,-0.43
2.166,-0.4
2.168,-0.345
2.17,-0.39
2.172,-0.425
2.174,-0.505
2.176,-0.51
2.178,-0.52
2.18,-0.505
2.182,-0.495
2.184,-0.435
2.186,-0.375
2.188,-0.3
2.19,-0.365
2.192,-0.395
2.194,-0.475
2.196,-0.5
2.198,-0.575
2.2,-0.515
2.202,-0.495
2.204,-0.39
2.206,-0.365
2.208,-0.255
2.21,-0.265
2.212,-0.32
2.214,-0.395
2.216,-0.445
2.218,-0.47
2.22,-0.455
2.222,-0.435
2.224,-0.385
2.226,-0.4
2.228,-0.33
2.23,-0.36
2.232,-0.41
2.234,-0.435
2.236,-0.445
2.238,-0.545
2.24,-0.535
2.242,-0.52
2.244,-0.45
2.246,-0.45
2.248,-0.41
2.25,-0.45
2.252,-0.5
2.254,-0.54
2.256,-0.58
2.258,-0.655
2.26,-0.635
2.262,-0.595
2.264,-0.505
2.266,-0.5
2.268,-0.42
2.27,-0.455
2.272,-0.6
2.274,-0.675
2.276,-0.66
2.278,-0.73
2.28,-0.72
2.282,-0.725
2.284,-0.655
2.286,-0.62
2.288,-0.565
2.29,-0.595
2.292,-0.64
2.294,-0.72
2.296,-0.75
2.298,-0.83
2.3,-0.815
2.302,-0.735
2.304,-0.685
2.306,-0.64
2.308,-0.61
2.31,-0.635
2.312,-0.685
2.314,-0.795
2.316,-0.82
2.318,-0.9
2.32,-0.84
2.322,-0.735
2.324,-0.675
2.326,-0.675
2.328,-0.66
2.33,-0.67
2.332,-0.71
2.334,-0.765
2.336,-0.825
2.338,-0.86
2.34,-0.82
2.342,-0.765
2.344,-0.675
2.346,-0.68
2.348,-0.63
2.35,-0.64
2.352,-0.71
2.354,-0.79
2.356,-0.84
2.358,-0.88
2.36,-0.845
2.362,-0.765
2.364,-0.7
2.366,-0.645
2.368,-0.6
2.37,-0.635
2.372,-0.745
2.374,-0.77
2.376,-0.805
2.378,-0.78
2.38,-0.79
2.382,-0.755
2.384,-0.715
2.386,-0.665
2.388,-0.65
2.39,-0.665
2.392,-0.73
2.394,-0.72
2.396,-0.755
2.398,-0.79
2.4,-0.785
2.402,-0.705
2.404,-0.69
2.406,-0.635
2.408,-0.675
2.41,-0.69
2.412,-0.72
2.414,-0.78
2.416,-0.82
2.418,-0.78
2.42,-0.76
2.422,-0.725
2.424,-0.69
2.426,-0.635
2.428,-0.63
2.43,-0.665
2.432,-0.755
2.434,-0.765
2.436,-0.835
2.438,-0.815
2.44,-0.795
2.442,-0.73
2.444,-0.675
2.446,-0.595
2.448,-0.61
2.45,-0.68
2.452,-0.745
2.454,-0.775
2.456,-0.835
2.458,-0.805
2.46,-0.76
2.462,-0.705
2.464,-0.685
2.466,-0.62
2.468,-0.62
2.47,-0.675
2.472,-0.725
2.474,-0.785
2.476,-0.865
2.478,-0.85
2.48,-0.835
2.482,-0.76
2.484,-0.74
2.486,-0.6
2.488,-0.63
2.49,-0.68
2.492,-0.755
2.494,-0.775
2.496,-0.8
2.498,-0.83
2.5,-0.81
2.502,-0.725
2.504,-0.72
2.506,-0.665
2.508,-0.72
2.51,-0.755
2.512,-0.785
2.514,-0.795
2.516,-0.835
2.518,-0.79
2.52,-0.75
2.522,-0.67
2.524,-0.665
2.526,-0.655
2.528,-0.665
2.53,-0.76
2.532,-0.83
2.534,-0.805
2.536,-0.895
2.538,-0.86
2.54,-0.8
2.542,-0.71
2.544,-0.715
2.546,-0.655
2.548,-0.685
2.55,-0.73
2.552,-0.795
2.554,-0.805
2.556,-0.875
2.558,-0.85
2.56,-0.82
2.562,-0.745
2.564,-0.71
2.566,-0.635
2.568,-0.65
2.57,-0.725
2.572,-0.765
2.574,-0.795
2.576,-0.87
2.578,-0.84
2.58,-0.765
2.582,-0.7
2.584,-0.74
2.586,-0.69
2.588,-0.71
2.59,-0.77
2.592,-0.82
2.594,-0.82
2.596,-0.855
2.598,-0.84
2.6,-0.795
2.602,-0.725
2.604,-0.735
2.606,-0.69
2.608,-0.685
2.61,-0.77
2.612,-0.79
2.614,-0.815
2.616,-0.855
2.618,-0.81
2.62,-0.77
2.622,-0.72
2.624,-0.69
2.626,-0.67
2.628,-0.69
2.63,-0.755
2.632,-0.81
2.634,-0.835
2.636,-0.86
2.638,-0.8
2.64,-0.75
2.642,-0.715
2.644,-0.715
2.646,-0.73
2.648,-0.725
2.65,-0.78
2.652,-0.79
2.654,-0.825
2.656,-0.865
2.658,-0.91
2.66,-0.805
2.662,-0.75
2.664,-0.715
2.666,-0.67
2.668,-0.695
2.67,-0.795
2.672,-0.845
2.674,-0.85
2.676,-0.86
2.678,-0.835
2.68,-0.785
2.682,-0.715
2.684,-0.64
2.686,-0.635
2.688,-0.69
2.69,-0.785
2.692,-0.81
2.694,-0.855
2.696,-0.875
2.698,-0.85
2.7,-0.78
2.702,-0.71
2.704,-0.66
2.706,-0.68
2.708,-0.73
2.71,-0.77
2.712,-0.82
2.714,-0.875
2.716,-0.895
2.718,-0.855
2.72,-0.795
2.722,-0.75
2.724,-0.735
2.726,-0.755
2.728,-0.72
2.73,-0.77
2.732,-0.82
2.734,-0.85
2.736,-0.855
2.738,-0.81
2.74,-0.73
2.742,-0.71
2.744,-0.63
2.746,-0.665
2.748,-0.69
2.75,-0.755
2.752,-0.8
2.754,-0.87
2.756,-0.84
2.758,-0.835
2.76,-0.775
2.762,-0.73
2.764,-0.67
2.766,-0.695
2.768,-0.755
2.77,-0.85
2.772,-0.9
2.774,-0.92
2.776,-0.88
2.778,-0.78
2.78,-0.76
2.782,-0.76
2.784,-0.665
2.786,-0.665
2.788,-0.67
2.79,-0.785
2.792,-0.805
2.794,-0.86
2.796,-0.825
2.798,-0.79
2.8,-0.695
2.802,-0.695
2.804,-0.625
2.806,-0.675
2.808,-0.73
2.81,-0.785
2.812,-0.805
2.814,-0.885
2.816,-0.845
2.818,-0.815
2.82,-0.725
2.822,-0.71
2.824,-0.63
2.826,-0.65
2.828,-0.72
2.83,-0.795
2.832,-0.805
2.834,-0.88
2.836,-0.85
2.838,-0.8
2.84,-0.735
2.842,-0.73
2.844,-0.665
2.846,-0.705
2.848,-0.765
2.85,-0.81
2.852,-0.82
2.854,-0.91
2.856,-0.905
2.858,-0.81
2.86,-0.745
2.862,-0.72
2.864,-0.685
2.866,-0.72
2.868,-0.785
2.87,-0.84
2.872,-0.86
2.874,-0.945
2.876,-0.935
2.878,-0.88
2.88,-0.8
2.882,-0.81
2.884,-0.745
2.886,-0.695
2.888,-0.775
2.89,-0.81
2.892,-0.83
2.894,-0.905
2.896,-0.87
2.898,-0.79
2.9,-0.72
2.902,-0.705
2.904,-0.655
2.906,-0.655
2.908,-0.665
2.91,-0.695
2.912,-0.68
2.914,-0.65
2.916,-0.605
2.918,-0.545
2.92,-0.495
2.922,-0.525
2.924,-0.53
2.926,-0.545
2.928,-0.665
2.93,-0.805
2.932,-0.915
2.934,-1.055
2.936,-1.1
2.938,-1.1
2.94,-1.05
2.942,-1.085
2.944,-1.14
2.946,-1.21
2.948,-1.355
2.95,-1.415
2.952,-1.335
2.954,-1.31
2.956,-1.245
2.958,-1.16
2.96,-1.025
2.962,-0.995
2.964,-0.88
2.966,-0.845
2.968,-0.915
2.97,-0.955
2.972,-0.96
2.974,-0.925
2.976,-0.92
2.978,-0.845
2.98,-0.77
2.982,-0.765
2.984,-0.785
2.986,-0.765
2.988,-0.815
2.99,-0.85
2.992,-0.87
2.994,-0.83
2.996,-0.835
2.998,-0.795
3,-0.745
3.002,-0.685
3.004,-0.675
3.006,-0.67
3.008,-0.725
3.01,-0.76
3.012,-0.845
3.014,-0.865
3.016,-0.85
3.018,-0.775
3.02,-0.755
3.022,-0.705
3.024,-0.715
3.026,-0.695
3.028,-0.745
3.03,-0.78
3.032,-0.83
3.034,-0.81
3.036,-0.78
3.038,-0.715
3.04,-0.695
3.042,-0.655
3.044,-0.64
3.046,-0.695
3.048,-0.74
3.05,-0.79
3.052,-0.83
3.054,-0.82
3.056,-0.805
3.058,-0.715
3.06,-0.725
3.062,-0.67
3.064,-0.685
3.066,-0.685
3.068,-0.78
3.07,-0.82
3.072,-0.875
3.074,-0.79
3.076,-0.76
3.078,-0.695
3.08,-0.64
3.082,-0.565
3.084,-0.575
3.086,-0.605
3.088,-0.71
3.09,-0.74
3.092,-0.8
3.094,-0.77
3.096,-0.745
3.098,-0.67
3.1,-0.64
3.102,-0.565
3.104,-0.615
3.106,-0.63
3.108,-0.69
3.11,-0.71
3.112,-0.775
3.114,-0.775
3.116,-0.695
3.118,-0.62
3.12,-0.58
3.122,-0.535
3.124,-0.535
3.126,-0.565
3.128,-0.625
3.13,-0.595
3.132,-0.68
3.134,-0.655
3.136,-0.615
3.138,-0.57
3.14,-0.605
3.142,-0.52
3.144,-0.525
3.146,-0.52
3.148,-0.575
3.15,-0.575
3.152,-0.655
3.154,-0.645
3.156,-0.59
3.158,-0.5
3.16,-0.53
3.162,-0.43
3.164,-0.445
3.166,-0.485
3.168,-0.555
3.17,-0.57
3.172,-0.58
3.174,-0.56
3.176,-0.495
3.178,-0.39
3.18,-0.38
3.182,-0.34
3.184,-0.335
3.186,-0.39
3.188,-0.455
3.19,-0.515
3.192,-0.565
3.194,-0.54
3.196,-0.5
3.198,-0.45
3.2,-0.47
3.202,-0.43
3.204,-0.445
3.206,-0.54
3.208,-0.61
3.21,-0.595
3.212,-0.655
3.214,-0.66
3.216,-0.59
3.218,-0.545
3.22,-0.53
3.222,-0.5
3.224,-0.525
3.226,-0.575
3.228,-0.66
3.23,-0.69
3.232,-0.745
3.234,-0.76
3.236,-0.755
3.238,-0.71
3.24,-0.665
3.242,-0.64
3.244,-0.675
3.246,-0.745
3.248,-0.835
3.25,-0.855
3.252,-0.87
3.254,-0.83
3.256,-0.77
3.258,-0.72
3.26,-0.695
3.262,-0.675
3.264,-0.705
3.266,-0.78
3.268,-0.845
3.27,-0.89
3.272,-0.91
3.274,-0.875
3.276,-0.815
3.278,-0.765
3.28,-0.73
3.282,-0.76
3.284,-0.79
3.286,-0.83
3.288,-0.885
3.29,-0.915
3.292,-0.915
3.294,-0.905
3.296,-0.82
3.298,-0.77
3.3,-0.73
3.302,-0.705
3.304,-0.785
3.306,-0.865
3.308,-0.87
3.31,-0.955
3.312,-0.93
3.314,-0.91
3.316,-0.85
3.318,-0.825
3.32,-0.685
3.322,-0.665
3.324,-0.7
3.326,-0.79
3.328,-0.875
3.33,-0.905
3.332,-0.905
3.334,-0.9
3.336,-0.82
3.338,-0.785
3.34,-0.725
3.342,-0.715
3.344,-0.735
3.346,-0.785
3.348,-0.855
3.35,-0.91
3.352,-0.905
3.354,-0.88
3.356,-0.825
3.358,-0.795
3.36,-0.76
3.362,-0.77
3.364,-0.785
3.366,-0.88
3.368,-0.835
3.37,-0.905
3.372,-0.86
3.374,-0.86
3.376,-0.775
3.378,-0.75
3.38,-0.67
3.382,-0.69
3.384,-0.755
3.386,-0.85
3.388,-0.86
3.39,-0.915
3.392,-0.9
3.394,-0.895
3.396,-0.815
3.398,-0.8
3.4,-0.705
3.402,-0.74
3.404,-0.78
3.406,-0.865
3.408,-0.89
3.41,-1.01
3.412,-0.965
3.414,-0.875
3.416,-0.825
3.418,-0.865
3.42,-0.71
3.422,-0.675
3.424,-0.735
3.426,-0.815
3.428,-0.815
3.43,-0.855
3.432,-0.855
3.434,-0.805
3.436,-0.75
3.438,-0.76
3.44,-0.67
3.442,-0.675
3.444,-0.72
3.446,-0.82
3.448,-0.845
3.45,-0.92
3.452,-0.895
3.454,-0.875
3.456,-0.825
3.458,-0.81
3.46,-0.765
3.462,-0.76
3.464,-0.8
3.466,-0.86
3.468,-0.865
3.47,-0.94
3.472,-0.915
3.474,-0.87
3.476,-0.785
3.478,-0.81
3.48,-0.76
3.482,-0.765
3.484,-0.805
3.486,-0.89
3.488,-0.865
3.49,-0.93
3.492,-0.92
3.494,-0.88
3.496,-0.835
3.498,-0.83
3.5,-0.785
3.502,-0.815
3.504,-0.865
3.506,-0.91
3.508,-0.89
3.51,-0.925
3.512,-0.91
3.514,-0.885
3.516,-0.865
3.518,-0.85
3.52,-0.79
3.522,-0.805
3.524,-0.85
3.526,-0.93
3.528,-0.97
3.53,-0.975
3.532,-0.965
3.534,-0.9
3.536,-0.81
3.538,-0.795
3.54,-0.75
3.542,-0.775
3.544,-0.835
3.546,-0.895
3.548,-0.91
3.55,-0.93
3.552,-0.895
3.554,-0.845
3.556,-0.8
3.558,-0.76
3.56,-0.745
3.562,-0.775
3.564,-0.875
3.566,-0.915
3.568,-0.935
3.57,-0.93
3.572,-0.94
3.574,-0.88
3.576,-0.81
3.578,-0.775
3.58,-0.79
3.582,-0.835
3.584,-0.895
3.586,-0.945
3.588,-1.015
3.59,-1.015
3.592,-0.96
3.594,-0.905
3.596,-0.845
3.598,-0.805
3.6,-0.81
3.602,-0.835
3.604,-0.905
3.606,-0.9
3.608,-0.95
3.61,-0.97
3.612,-0.945
3.614,-0.845
3.616,-0.815
3.618,-0.755
3.62,-0.775
3.622,-0.81
3.624,-0.93
3.626,-0.94
3.628,-0.99
3.63,-0.99
3.632,-0.925
3.634,-0.84
3.636,-0.83
3.638,-0.77
3.64,-0.81
3.642,-0.835
3.644,-0.93
3.646,-0.955
3.648,-1.03
3.65,-0.96
3.652,-0.95
3.654,-0.855
3.656,-0.825
3.658,-0.75
3.66,-0.805
3.662,-0.83
3.664,-0.88
3.666,-0.905
3.668,-0.975
3.67,-0.925
3.672,-0.93
3.674,-0.89
3.676,-0.895
3.678,-0.8
3.68,-0.8
3.682,-0.82
3.684,-0.88
3.686,-0.89
3.688,-0.99
3.69,-0.99
3.692,-0.935
3.694,-0.86
3.696,-0.845
3.698,-0.775
3.7,-0.82
3.702,-0.87
3.704,-0.91
3.706,-0.9
3.708,-0.985
3.71,-0.955
3.712,-0.915
3.714,-0.86
3.716,-0.845
3.718,-0.77
3.72,-0.805
3.722,-0.865
3.724,-0.955
3.726,-0.945
3.728,-1.025
3.73,-0.99
3.732,-0.945
3.734,-0.845
3.736,-0.845
3.738,-0.8
3.74,-0.815
3.742,-0.855
3.744,-0.92
3.746,-0.92
3.748,-1.01
3.75,-1
3.752,-0.96
3.754,-0.89
3.756,-0.88
3.758,-0.88
3.76,-0.84
3.762,-0.84
3.764,-0.895
3.766,-0.875
3.768,-0.94
3.77,-0.955
3.772,-0.905
3.774,-0.825
3.776,-0.83
3.778,-0.79
3.78,-0.855
3.782,-0.885
3.784,-0.965
3.786,-0.995
3.788,-1.05
3.79,-1.02
3.792,-0.925
3.794,-0.795
3.796,-0.8
3.798,-0.795
3.8,-0.785
3.802,-0.835
3.804,-0.93
3.806,-0.93
3.808,-0.995
3.81,-0.98
3.812,-0.92
3.814,-0.865
3.816,-0.855
3.818,-0.8
3.82,-0.835
3.822,-0.885
3.824,-0.93
3.826,-0.92
3.828,-1
3.83,-0.965
3.832,-0.89
3.834,-0.84
3.836,-0.81
3.838,-0.765
3.84,-0.795
3.842,-0.885
3.844,-0.955
3.846,-0.99
3.848,-0.99
3.85,-0.96
3.852,-0.905
3.854,-0.885
3.856,-0.845
3.858,-0.825
3.86,-0.82
3.862,-0.975
3.864,-1.03
3.866,-1.06
3.868,-1.05
3.87,-1.005
3.872,-0.955
3.874,-0.885
3.876,-0.825
3.878,-0.785
3.88,-0.815
3.882,-0.88
3.884,-0.895
3.886,-0.94
3.888,-0.915
3.89,-0.92
3.892,-0.865
3.894,-0.845
3.896,-0.82
3.898,-0.815
3.9,-0.855
3.902,-0.945
3.904,-0.99
3.906,-1.02
3.908,-1.015
3.91,-1
3.912,-0.94
3.914,-0.885
3.916,-0.78
3.918,-0.72
3.92,-0.795
3.922,-0.88
3.924,-0.9
3.926,-0.945
3.928,-0.93
3.93,-0.915
3.932,-0.86
3.934,-0.82
3.936,-0.755
3.938,-0.785
3.94,-0.8
3.942,-0.87
3.944,-0.92
3.946,-0.97
3.948,-0.925
3.95,-0.885
3.952,-0.82
3.954,-0.795
3.956,-0.725
3.958,-0.74
3.96,-0.79
3.962,-0.87
3.964,-0.915
3.966,-0.99
3.968,-0.975
3.97,-0.98
3.972,-0.88
3.974,-0.85
3.976,-0.795
3.978,-0.845
3.98,-0.87
3.982,-0.93
3.984,-0.955
3.986,-1.045
3.988,-1.01
3.99,-0.98
3.992,-0.92
3.994,-0.885
3.996,-0.85
3.998,-0.845
4,-0.89
4.002,-0.94
4.004,-0.925
4.006,-0.995
4.008,-0.99
4.01,-0.96
4.012,-0.87
4.014,-0.895
4.016,-0.84
4.018,-0.845
4.02,-0.83
4.022,-0.87
4.024,-0.83
4.026,-0.85
4.028,-0.84
4.03,-0.765
4.032,-0.68
4.034,-0.64
4.036,-0.535
4.038,-0.525
4.04,-0.595
4.042,-0.67
4.044,-0.705
4.046,-0.795
4.048,-0.84
4.05,-0.875
4.052,-0.925
4.054,-1.015
4.056,-1.055
4.058,-1.15
4.06,-1.225
4.062,-1.355
4.064,-1.475
4.066,-1.59
4.068,-1.575
4.07,-1.49
4.072,-1.33
4.074,-1.235
4.076,-1.14
4.078,-1.11
4.08,-1.14
4.082,-1.175
4.084,-1.165
4.086,-1.14
4.088,-1.105
4.09,-1
4.092,-0.905
4.094,-0.89
4.096,-0.85
4.098,-0.865
4.1,-0.92
4.102,-0.96
4.104,-0.965
4.106,-0.975
4.108,-0.96
4.11,-0.915
4.112,-0.85
4.114,-0.855
4.116,-0.825
4.118,-0.815
4.12,-0.91
4.122,-0.97
4.124,-0.97
4.126,-0.975
4.128,-1
4.13,-0.885
4.132,-0.8
4.134,-0.795
4.136,-0.745
4.138,-0.755
4.14,-0.81
4.142,-0.885
4.144,-0.93
4.146,-0.95
4.148,-0.95
4.15,-0.915
4.152,-0.84
4.154,-0.835
4.156,-0.8
4.158,-0.805
4.16,-0.85
4.162,-0.865
4.164,-0.885
4.166,-0.875
4.168,-0.89
4.17,-0.825
4.172,-0.775
4.174,-0.795
4.176,-0.725
4.178,-0.755
4.18,-0.81
4.182,-0.88
4.184,-0.92
4.186,-0.92
4.188,-0.915
4.19,-0.84
4.192,-0.785
4.194,-0.76
4.196,-0.75
4.198,-0.75
4.2,-0.855
4.202,-0.905
4.204,-0.955
4.206,-0.93
4.208,-0.875
4.21,-0.75
4.212,-0.71
4.214,-0.675
4.216,-0.685
4.218,-0.72
4.22,-0.76
4.222,-0.79
4.224,-0.865
4.226,-0.84
4.228,-0.8
4.23,-0.735
4.232,-0.72
4.234,-0.665
4.236,-0.68
4.238,-0.675
4.24,-0.71
4.242,-0.745
4.244,-0.82
4.246,-0.805
4.248,-0.75
4.25,-0.685
4.252,-0.685
4.254,-0.61
4.256,-0.63
4.258,-0.66
4.26,-0.695
4.262,-0.695
4.264,-0.735
4.266,-0.73
4.268,-0.69
4.27,-0.605
4.272,-0.56
4.274,-0.475
4.276,-0.515
4.278,-0.575
4.28,-0.62
4.282,-0.65
4.284,-0.73
4.286,-0.695
4.288,-0.6
4.29,-0.495
4.292,-0.505
4.294,-0.44
4.296,-0.45
4.298,-0.47
4.3,-0.57
4.302,-0.59
4.304,-0.66
4.306,-0.63
4.308,-0.59
4.31,-0.555
4.312,-0.54
4.314,-0.47
4.316,-0.49
4.318,-0.53
4.32,-0.59
4.322,-0.59
4.324,-0.69
4.326,-0.69
4.328,-0.665
4.33,-0.545
4.332,-0.58
4.334,-0.485
4.336,-0.53
4.338,-0.58
4.34,-0.67
4.342,-0.7
4.344,-0.775
4.346,-0.81
4.348,-0.75
4.35,-0.685
4.352,-0.705
4.354,-0.67
4.356,-0.675
4.358,-0.725
4.36,-0.815
4.362,-0.835
4.364,-0.93
4.366,-0.915
4.368,-0.845
4.37,-0.8
4.372,-0.785
4.374,-0.765
4.376,-0.785
4.378,-0.83
4.38,-0.88
4.382,-0.89
4.384,-0.94
4.386,-0.93
4.388,-0.91
4.39,-0.82
4.392,-0.83
4.394,-0.775
4.396,-0.725
4.398,-0.835
4.4,-0.945
4.402,-0.975
4.404,-0.99
4.406,-0.97
4.408,-0.9
4.41,-0.82
4.412,-0.8
4.414,-0.775
4.416,-0.75
4.418,-0.835
4.42,-0.905
4.422,-0.935
4.424,-0.98
4.426,-0.97
4.428,-0.88
4.43,-0.84
4.432,-0.835
4.434,-0.8
4.436,-0.805
4.438,-0.86
4.44,-0.935
4.442,-0.975
4.444,-0.985
4.446,-0.99
4.448,-0.915
4.45,-0.87
4.452,-0.815
4.454,-0.825
4.456,-0.76
4.458,-0.82
4.46,-0.86
4.462,-0.915
4.464,-0.925
4.466,-0.935
4.468,-0.87
4.47,-0.8
4.472,-0.745
4.474,-0.75
4.476,-0.79
4.478,-0.855
4.48,-0.945
4.482,-0.955
4.484,-0.935
4.486,-0.895
4.488,-0.825
4.49,-0.78
4.492,-0.74
4.494,-0.81
4.496,-0.85
4.498,-0.93
4.5,-0.97
4.502,-1.01
4.504,-0.955
4.506,-0.92
4.508,-0.81
4.51,-0.785
4.512,-0.725
4.514,-0.74
4.516,-0.785
4.518,-0.86
4.52,-0.895
4.522,-0.955
4.524,-0.94
4.526,-0.915
4.528,-0.82
4.53,-0.785
4.532,-0.695
4.534,-0.715
4.536,-0.78
4.538,-0.9
4.54,-0.94
4.542,-1.005
4.544,-0.97
4.546,-0.87
4.548,-0.83
4.55,-0.82
4.552,-0.78
4.554,-0.8
4.556,-0.8
4.558,-0.86
4.56,-0.85
4.562,-0.905
4.564,-0.895
4.566,-0.855
4.568,-0.8
4.57,-0.775
4.572,-0.72
4.574,-0.735
4.576,-0.8
4.578,-0.89
4.58,-0.94
4.582,-0.99
4.584,-0.96
4.586,-0.9
4.588,-0.85
4.59,-0.855
4.592,-0.775
4.594,-0.765
4.596,-0.805
4.598,-0.92
4.6,-0.94
4.602,-1.015
4.604,-0.935
4.606,-0.88
4.608,-0.82
4.61,-0.825
4.612,-0.735
4.614,-0.77
4.616,-0.825
4.618,-0.91
4.62,-0.92
4.622,-0.95
4.624,-0.94
4.626,-0.875
4.628,-0.825
4.63,-0.86
4.632,-0.77
4.634,-0.765
4.636,-0.845
4.638,-0.93
4.64,-0.94
4.642,-0.98
4.644,-0.97
4.646,-0.92
4.648,-0.845
4.65,-0.8
4.652,-0.755
4.654,-0.77
4.656,-0.835
4.658,-0.935
4.66,-0.94
4.662,-1.01
4.664,-0.965
4.666,-0.905
4.668,-0.85
4.67,-0.815
4.672,-0.745
4.674,-0.78
4.676,-0.84
4.678,-0.93
4.68,-0.925
4.682,-0.96
4.684,-0.925
4.686,-0.87
4.688,-0.825
4.69,-0.825
4.692,-0.75
4.694,-0.75
4.696,-0.805
4.698,-0.895
4.7,-0.905
4.702,-0.95
4.704,-1.01
4.706,-0.975
4.708,-0.895
4.71,-0.85
4.712,-0.77
4.714,-0.775
4.716,-0.815
4.718,-0.925
4.72,-0.915
4.722,-0.985
4.724,-0.95
4.726,-0.89
4.728,-0.805
4.73,-0.825
4.732,-0.795
4.734,-0.84
4.736,-0.89
4.738,-0.93
4.74,-0.925
4.742,-0.935
4.744,-0.93
4.746,-0.835
4.748,-0.78
4.75,-0.775
4.752,-0.75
4.754,-0.785
4.756,-0.87
4.758,-0.89
4.76,-0.92
4.762,-0.94
4.764,-0.935
4.766,-0.855
4.768,-0.845
4.77,-0.81
4.772,-0.785
4.774,-0.8
4.776,-0.89
4.778,-0.96
4.78,-0.985
4.782,-0.99
4.784,-0.97
4.786,-0.895
4.788,-0.815
4.79,-0.755
4.792,-0.765
4.794,-0.78
4.796,-0.84
4.798,-0.905
4.8,-0.965
4.802,-0.98
4.804,-1.005
4.806,-0.915
4.808,-0.845
4.81,-0.8
4.812,-0.78
4.814,-0.77
4.816,-0.81
4.818,-0.83
4.82,-0.935
4.822,-0.97
4.824,-0.95
4.826,-0.88
4.828,-0.835
4.83,-0.76
4.832,-0.755
4.834,-0.78
4.836,-0.89
4.838,-0.915
4.84,-0.975
4.842,-0.95
4.844,-0.915
4.846,-0.86
4.848,-0.87
4.85,-0.805
4.852,-0.8
4.854,-0.835
4.856,-0.89
4.858,-0.9
4.86,-0.95
4.862,-0.915
4.864,-0.9
4.866,-0.82
4.868,-0.795
4.87,-0.755
4.872,-0.785
4.874,-0.82
4.876,-0.9
4.878,-0.96
4.88,-1.02
4.882,-0.985
4.884,-0.945
4.886,-0.855
4.888,-0.82
4.89,-0.77
4.892,-0.81
4.894,-0.84
4.896,-0.87
4.898,-0.85
4.9,-0.905
4.902,-0.915
4.904,-0.885
4.906,-0.835
4.908,-0.815
4.91,-0.765
4.912,-0.765
4.914,-0.845
4.916,-0.89
4.918,-0.915
4.92,-0.99
4.922,-0.935
4.924,-0.87
4.926,-0.855
4.928,-0.815
4.93,-0.745
4.932,-0.765
4.934,-0.805
4.936,-0.89
4.938,-0.895
4.94,-0.945
4.942,-0.97
4.944,-0.945
4.946,-0.875
4.948,-0.815
4.95,-0.8
4.952,-0.775
4.954,-0.825
4.956,-0.89
4.958,-0.93
4.96,-1.015
4.962,-0.94
4.964,-0.865
4.966,-0.815
4.968,-0.77
4.97,-0.71
4.972,-0.745
4.974,-0.805
4.976,-0.86
4.978,-0.91
4.98,-1.025
4.982,-1.03
4.984,-0.875
4.986,-0.765
4.988,-0.755
4.99,-0.68
4.992,-0.68
4.994,-0.77
4.996,-0.86
4.998,-0.85
5,-0.895
5.002,-0.885
5.004,-0.865
5.006,-0.77
5.008,-0.755
5.01,-0.745
5.012,-0.76
5.014,-0.81
5.016,-0.885
5.018,-0.885
5.02,-0.93
5.022,-0.86
5.024,-0.805
5.026,-0.775
5.028,-0.755
5.03,-0.715
5.032,-0.74
5.034,-0.81
5.036,-0.91
5.038,-0.965
5.04,-0.98
5.042,-0.975
5.044,-0.905
5.046,-0.82
5.048,-0.75
5.05,-0.775
5.052,-0.805
5.054,-0.82
5.056,-0.845
5.058,-0.915
5.06,-0.915
5.062,-0.915
5.064,-0.855
5.066,-0.81
5.068,-0.795
5.07,-0.775
5.072,-0.805
5.074,-0.845
5.076,-0.895
5.078,-0.96
5.08,-0.985
5.082,-0.97
5.084,-0.84
5.086,-0.78
5.088,-0.72
5.09,-0.68
5.092,-0.725
5.094,-0.78
5.096,-0.795
5.098,-0.815
5.1,-0.77
5.102,-0.71
5.104,-0.66
5.106,-0.58
5.108,-0.525
5.11,-0.53
5.112,-0.56
5.114,-0.68
5.116,-0.755
5.118,-0.88
5.12,-0.93
5.122,-0.975
5.124,-1
5.126,-1.01
5.128,-1.05
5.13,-1.095
5.132,-1.16
5.134,-1.28
5.136,-1.395
5.138,-1.495
5.14,-1.455
5.142,-1.42
5.144,-1.295
5.146,-1.195
5.148,-1.085
5.15,-1.03
5.152,-1.03
5.154,-1.065
5.156,-1.065
5.158,-1.125
5.16,-1.07
5.162,-1.005
5.164,-0.91
5.166,-0.88
5.168,-0.82
5.17,-0.815
5.172,-0.83
5.174,-0.9
5.176,-0.925
5.178,-0.975
5.18,-0.98
5.182,-0.9
5.184,-0.82
5.186,-0.78
5.188,-0.66
5.19,-0.67
5.192,-0.72
5.194,-0.84
5.196,-0.85
5.198,-0.94
5.2,-0.88
5.202,-0.855
5.204,-0.775
5.206,-0.765
5.208,-0.71
5.21,-0.71
5.212,-0.735
5.214,-0.775
5.216,-0.795
5.218,-0.885
5.22,-0.87
5.222,-0.84
5.224,-0.775
5.226,-0.735
5.228,-0.68
5.23,-0.695
5.232,-0.74
5.234,-0.805
5.236,-0.815
5.238,-0.87
5.24,-0.865
5.242,-0.79
5.244,-0.71
5.246,-0.685
5.248,-0.62
5.25,-0.67
5.252,-0.76
5.254,-0.83
5.256,-0.82
5.258,-0.86
5.26,-0.865
5.262,-0.78
5.264,-0.685
5.266,-0.67
5.268,-0.6
5.27,-0.59
5.272,-0.635
5.274,-0.745
5.276,-0.77
5.278,-0.84
5.28,-0.85
5.282,-0.785
5.284,-0.715
5.286,-0.715
5.288,-0.66
5.29,-0.655
5.292,-0.66
5.294,-0.675
5.296,-0.72
5.298,-0.755
5.3,-0.72
5.302,-0.615
5.304,-0.555
5.306,-0.575
5.308,-0.545
5.31,-0.545
5.312,-0.595
5.314,-0.645
5.316,-0.68
5.318,-0.735
5.32,-0.735
5.322,-0.615
5.324,-0.555
5.326,-0.535
5.328,-0.505
5.33,-0.485
5.332,-0.54
5.334,-0.575
5.336,-0.565
5.338,-0.615
5.34,-0.595
5.342,-0.535
5.344,-0.48
5.346,-0.475
5.348,-0.425
5.35,-0.435
5.352,-0.52
5.354,-0.565
5.356,-0.58
5.358,-0.535
5.36,-0.525
5.362,-0.49
5.364,-0.455
5.366,-0.42
5.368,-0.435
5.37,-0.465
5.372,-0.465
5.374,-0.47
5.376,-0.465
5.378,-0.44
5.38,-0.465
5.382,-0.455
5.384,-0.44
5.386,-0.415
5.388,-0.44
5.39,-0.41
5.392,-0.46
5.394,-0.525
5.396,-0.595
5.398,-0.57
5.4,-0.58
5.402,-0.545
5.404,-0.52
5.406,-0.5
5.408,-0.495
5.41,-0.515
5.412,-0.57
5.414,-0.63
5.416,-0.745
5.418,-0.725
5.42,-0.68
5.422,-0.655
5.424,-0.63
5.426,-0.615
5.428,-0.655
5.43,-0.685
5.432,-0.775
5.434,-0.79
5.436,-0.845
5.438,-0.87
5.44,-0.825
5.442,-0.745
5.444,-0.72
5.446,-0.68
5.448,-0.71
5.45,-0.715
5.452,-0.805
5.454,-0.865
5.456,-0.92
5.458,-0.895
5.46,-0.895
5.462,-0.87
5.464,-0.89
5.466,-0.82
5.468,-0.815
5.47,-0.81
5.472,-0.85
5.474,-0.845
5.476,-0.93
5.478,-0.895
5.48,-0.895
5.482,-0.82
5.484,-0.78
5.486,-0.675
5.488,-0.71
5.49,-0.775
5.492,-0.85
5.494,-0.91
5.496,-0.975
5.498,-0.97
5.5,-0.92
5.502,-0.865
5.504,-0.855
5.506,-0.795
5.508,-0.725
5.51,-0.8
5.512,-0.905
5.514,-0.94
5.516,-0.995
5.518,-0.98
5.52,-0.945
5.522,-0.86
5.524,-0.835
5.526,-0.755
5.528,-0.785
5.53,-0.805
5.532,-0.865
5.534,-0.905
5.536,-0.965
5.538,-0.935
5.54,-0.87
5.542,-0.83
5.544,-0.83
5.546,-0.77
5.548,-0.765
5.55,-0.81
5.552,-0.88
5.554,-0.845
5.556,-0.925
5.558,-0.915
5.56,-0.895
5.562,-0.82
5.564,-0.8
5.566,-0.76
5.568,-0.78
5.57,-0.82
5.572,-0.85
5.574,-0.82
5.576,-0.94
5.578,-0.915
5.58,-0.865
5.582,-0.81
5.584,-0.815
5.586,-0.775
5.588,-0.78
5.59,-0.855
5.592,-0.925
5.594,-0.945
5.596,-0.955
5.598,-0.985
5.6,-0.93
5.602,-0.845
5.604,-0.85
5.606,-0.82
5.608,-0.82
5.61,-0.89
5.612,-0.935
5.614,-0.935
5.616,-0.995
5.618,-0.965
5.62,-0.89
5.622,-0.81
5.624,-0.77
5.626,-0.72
5.628,-0.725
5.63,-0.8
5.632,-0.865
5.634,-0.92
5.636,-0.97
5.638,-0.955
5.64,-0.87
5.642,-0.775
5.644,-0.775
5.646,-0.775
5.648,-0.825
5.65,-0.89
5.652,-0.955
5.654,-0.965
5.656,-0.965
5.658,-0.945
5.66,-0.89
5.662,-0.85
5.664,-0.825
5.666,-0.815
5.668,-0.83
5.67,-0.9
5.672,-0.955
5.674,-1
5.676,-1
5.678,-0.975
5.68,-0.905
5.682,-0.845
5.684,-0.785
5.686,-0.775
5.688,-0.8
5.69,-0.885
5.692,-0.96
5.694,-1
5.696,-1.015
5.698,-1
5.7,-0.965
5.702,-0.915
5.704,-0.86
5.706,-0.84
5.708,-0.845
5.71,-0.98
5.712,-1.01
5.714,-1.065
5.716,-1.03
5.718,-0.99
5.72,-0.91
5.722,-0.835
5.724,-0.745
5.726,-0.77
5.728,-0.805
5.73,-0.905
5.732,-0.945
5.734,-1.005
5.736,-1.005
5.738,-0.96
5.74,-0.875
5.742,-0.865
5.744,-0.82
5.746,-0.835
5.748,-0.865
5.75,-0.945
5.752,-0.98
5.754,-1.035
5.756,-0.96
5.758,-0.895
5.76,-0.865
5.762,-0.84
5.764,-0.79
5.766,-0.81
5.768,-0.82
5.77,-0.925
5.772,-0.98
5.774,-1.035
5.776,-0.97
5.778,-0.91
5.78,-0.89
5.782,-0.88
5.784,-0.8
5.786,-0.825
5.788,-0.88
5.79,-0.98
5.792,-0.985
5.794,-1.03
5.796,-1.015
5.798,-0.965
5.8,-0.925
5.802,-0.91
5.804,-0.87
5.806,-0.855
5.808,-0.89
5.81,-0.98
5.812,-0.99
5.814,-1.035
5.816,-0.99
5.818,-0.95
5.82,-0.875
5.822,-0.865
5.824,-0.795
5.826,-0.795
5.828,-0.845
5.83,-0.95
5.832,-0.935
5.834,-1.03
5.836,-1
5.838,-0.945
5.84,-0.905
5.842,-0.925
5.844,-0.87
5.846,-0.9
5.848,-0.985
5.85,-1.025
5.852,-0.9
5.854,-0.94
5.856,-0.935
5.858,-0.915
5.86,-0.87
5.862,-0.885
5.864,-0.795
5.866,-0.835
5.868,-0.9
5.87,-0.96
5.872,-0.98
5.874,-1.02
5.876,-0.995
5.878,-0.945
5.88,-0.885
5.882,-0.865
5.884,-0.8
5.886,-0.805
5.888,-0.89
5.89,-0.96
5.892,-0.995
5.894,-1.06
5.896,-1.02
5.898,-0.955
5.9,-0.925
5.902,-0.9
5.904,-0.81
5.906,-0.815
5.908,-0.875
5.91,-0.965
5.912,-0.955
5.914,-1.005
5.916,-1.02
5.918,-0.96
5.92,-0.865
5.922,-0.86
5.924,-0.825
5.926,-0.83
5.928,-0.885
5.93,-0.97
5.932,-1.03
5.934,-1.03
5.936,-1
5.938,-0.955
5.94,-0.89
5.942,-0.905
5.944,-0.865
5.946,-0.865
5.948,-0.92
5.95,-0.965
5.952,-1
5.954,-1.03
5.956,-1.025
5.958,-0.93
5.96,-0.875
5.962,-0.825
5.964,-0.79
5.966,-0.84
5.968,-0.905
5.97,-0.96
5.972,-0.995
5.974,-1.015
5.976,-1
5.978,-0.91
5.98,-0.895
5.982,-0.845
5.984,-0.86
5.986,-0.86
5.988,-0.925
5.99,-0.985
5.992,-1
5.994,-1.01
5.996,-1.025
5.998,-0.945
6,-0.915
6.002,-0.87
6.004,-0.835
6.006,-0.84
6.008,-0.92
6.01,-0.955
6.012,-1.065
6.014,-1.035
6.016,-1
6.018,-0.93
6.02,-0.9
6.022,-0.865
6.024,-0.85
6.026,-0.865
6.028,-0.945
6.03,-0.99
6.032,-1.045
6.034,-0.995
6.036,-0.975
6.038,-0.92
6.04,-0.865
6.042,-0.825
6.044,-0.855
6.046,-0.885
6.048,-0.99
6.05,-1.01
6.052,-1.08
6.054,-1.08
6.056,-1.07
6.058,-0.985
6.06,-0.96
6.062,-0.85
6.064,-0.845
6.066,-0.875
6.068,-0.885
6.07,-0.885
6.072,-0.96
6.074,-0.945
6.076,-0.93
6.078,-0.845
6.08,-0.81
6.082,-0.755
6.084,-0.825
6.086,-0.855
6.088,-0.935
6.09,-0.915
6.092,-0.99
6.094,-0.935
6.096,-0.89
6.098,-0.865
6.1,-0.87
6.102,-0.775
6.104,-0.77
6.106,-0.835
6.108,-0.89
6.11,-0.91
6.112,-0.985
6.114,-0.97
6.116,-0.95
6.118,-0.89
6.12,-0.88
6.122,-0.835
6.124,-0.85
6.126,-0.9
6.128,-0.97
6.13,-0.97
6.132,-1.035
6.134,-1.05
6.136,-1
6.138,-0.915
6.14,-0.9
6.142,-0.85
6.144,-0.835
6.146,-0.895
6.148,-0.965
6.15,-0.97
6.152,-1
6.154,-1.005
6.156,-0.985
6.158,-0.935
6.16,-0.94
6.162,-0.905
6.164,-0.885
6.166,-0.955
6.168,-0.98
6.17,-0.93
6.172,-0.965
6.174,-0.945
6.176,-0.88
6.178,-0.785
6.18,-0.715
6.182,-0.555
6.184,-0.565
6.186,-0.635
6.188,-0.675
6.19,-0.695
6.192,-0.755
6.194,-0.765
6.196,-0.76
6.198,-0.72
6.2,-0.82
6.202,-0.89
6.204,-0.965
6.206,-1.12
6.208,-1.245
6.21,-1.285
6.212,-1.39
6.214,-1.44
6.216,-1.41
6.218,-1.41
6.22,-1.385
6.222,-1.265
6.224,-1.205
6.226,-1.24
6.228,-1.26
6.23,-1.23
6.232,-1.225
6.234,-1.155
6.236,-1.045
6.238,-0.965
6.24,-0.945
6.242,-0.9
6.244,-0.87
6.246,-0.975
6.248,-0.99
6.25,-1.055
6.252,-1.1
6.254,-1.09
6.256,-0.985
6.258,-0.88
6.26,-0.805
6.262,-0.825
6.264,-0.85
6.266,-0.89
6.268,-0.975
6.27,-1.005
6.272,-0.995
6.274,-1
6.276,-0.91
6.278,-0.835
6.28,-0.795
6.282,-0.79
6.284,-0.765
6.286,-0.82
6.288,-0.9
6.29,-0.95
6.292,-0.97
6.294,-0.975
6.296,-0.86
6.298,-0.845
6.3,-0.81
6.302,-0.805
6.304,-0.815
6.306,-0.92
6.308,-0.955
6.31,-0.945
6.312,-0.93
6.314,-0.905
6.316,-0.835
6.318,-0.8
6.32,-0.77
6.322,-0.75
6.324,-0.77
6.326,-0.87
6.328,-0.905
6.33,-0.98
6.332,-0.935
6.334,-0.865
6.336,-0.79
6.338,-0.78
6.34,-0.73
6.342,-0.755
6.344,-0.8
6.346,-0.84
6.348,-0.85
6.35,-0.93
6.352,-0.915
6.354,-0.895
6.356,-0.79
6.358,-0.76
6.36,-0.695
6.362,-0.73
6.364,-0.74
6.366,-0.83
6.368,-0.85
6.37,-0.92
6.372,-0.915
6.374,-0.855
6.376,-0.755
6.378,-0.76
6.38,-0.66
6.382,-0.665
6.384,-0.7
6.386,-0.79
6.388,-0.845
6.39,-0.92
6.392,-0.9
6.394,-0.825
6.396,-0.76
6.398,-0.735
6.4,-0.64
6.402,-0.62
6.404,-0.62
6.406,-0.695
6.408,-0.73
6.41,-0.795
6.412,-0.755
6.414,-0.67
6.416,-0.615
6.418,-0.6
6.42,-0.57
6.422,-0.565
6.424,-0.6
6.426,-0.665
6.428,-0.66
6.43,-0.74
6.432,-0.705
6.434,-0.645
6.436,-0.575
6.438,-0.57
6.44,-0.52
6.442,-0.54
6.444,-0.545
6.446,-0.62
6.448,-0.635
6.45,-0.71
6.452,-0.715
6.454,-0.65
6.456,-0.575
6.458,-0.535
6.46,-0.525
6.462,-0.51
6.464,-0.56
6.466,-0.64
6.468,-0.655
6.47,-0.72
6.472,-0.71
6.474,-0.665
6.476,-0.605
6.478,-0.62
6.48,-0.585
6.482,-0.59
6.484,-0.66
6.486,-0.745
6.488,-0.76
6.49,-0.845
6.492,-0.83
6.494,-0.78
6.496,-0.705
6.498,-0.71
6.5,-0.695
6.502,-0.735
6.504,-0.795
6.506,-0.89
6.508,-0.915
6.51,-0.94
6.512,-0.905
6.514,-0.87
6.516,-0.81
6.518,-0.82
6.52,-0.785
6.522,-0.8
6.524,-0.87
6.526,-0.91
6.528,-0.91
6.53,-1
6.532,-1.01
6.534,-0.905
6.536,-0.835
6.538,-0.845
6.54,-0.865
6.542,-0.845
6.544,-0.91
6.546,-0.96
6.548,-1.03
6.55,-1.02
6.552,-1.02
6.554,-0.955
6.556,-0.875
6.558,-0.845
6.56,-0.865
6.562,-0.875
6.564,-0.9
6.566,-0.975
6.568,-1.005
6.57,-1.05
6.572,-1.06
6.574,-0.975
6.576,-0.935
6.578,-0.87
6.58,-0.835
6.582,-0.87
6.584,-0.955
6.586,-0.995
6.588,-1.035
6.59,-1.025
6.592,-1.01
6.594,-0.94
6.596,-0.915
6.598,-0.875
6.6,-0.85
6.602,-0.87
6.604,-0.985
6.606,-0.995
6.608,-1.04
6.61,-1.07
6.612,-1.035
6.614,-0.935
6.616,-0.895
6.618,-0.795
6.62,-0.82
6.622,-0.85
6.624,-0.935
6.626,-0.995
6.628,-1.04
6.63,-1.04
6.632,-1.045
6.634,-0.975
6.636,-0.945
6.638,-0.875
6.64,-0.885
6.642,-0.95
6.644,-1.03
6.646,-0.975
6.648,-1.055
6.65,-1.005
6.652,-0.945
6.654,-0.875
6.656,-0.845
6.658,-0.77
6.66,-0.795
6.662,-0.865
6.664,-0.96
6.666,-0.99
6.668,-1.06
6.67,-1.05
6.672,-1
6.674,-0.925
6.676,-0.89
6.678,-0.795
6.68,-0.82
6.682,-0.895
6.684,-0.92
6.686,-0.93
6.688,-1.015
6.69,-1.02
6.692,-0.995
6.694,-0.92
6.696,-0.915
6.698,-0.855
6.7,-0.875
6.702,-0.925
6.704,-0.985
6.706,-0.985
6.708,-1.04
6.71,-0.985
6.712,-0.92
6.714,-0.895
6.716,-0.91
6.718,-0.83
6.72,-0.87
6.722,-0.89
6.724,-0.93
6.726,-0.965
6.728,-1.005
6.73,-1.005
6.732,-0.95
6.734,-0.91
6.736,-0.93
6.738,-0.875
6.74,-0.895
6.742,-0.915
6.744,-0.97
6.746,-0.985
6.748,-1.04
6.75,-1.04
6.752,-1.005
6.754,-0.94
6.756,-0.895
6.758,-0.86
6.76,-0.875
6.762,-0.945
6.764,-1.02
6.766,-1.035
6.768,-1.09
6.77,-1.1
6.772,-1.02
6.774,-0.95
6.776,-0.965
6.778,-0.895
6.78,-0.895
6.782,-0.955
6.784,-0.99
6.786,-0.965
6.788,-1.055
6.79,-1.075
6.792,-1
6.794,-0.905
6.796,-0.895
6.798,-0.845
6.8,-0.85
6.802,-0.92
6.804,-1.035
6.806,-1.055
6.808,-1.075
6.81,-1.125
6.812,-1.06
6.814,-0.98
6.816,-0.95
6.818,-0.86
6.82,-0.865
6.822,-0.955
6.824,-1.015
6.826,-0.975
6.828,-1.02
6.83,-1.005
6.832,-0.965
6.834,-0.915
6.836,-0.905
6.838,-0.87
6.84,-0.87
6.842,-0.98
6.844,-1.045
6.846,-1.03
6.848,-1.065
6.85,-1.06
6.852,-1.005
6.854,-0.9
6.856,-0.855
6.858,-0.825
6.86,-0.86
6.862,-0.935
6.864,-0.98
6.866,-1.025
6.868,-1.055
6.87,-1.04
6.872,-0.99
6.874,-0.92
6.876,-0.92
6.878,-0.95
6.88,-0.96
6.882,-1.015
6.884,-1.06
6.886,-1.11
6.888,-1.1
6.89,-1.055
6.892,-0.97
6.894,-0.945
6.896,-0.915
6.898,-0.915
6.9,-0.925
6.902,-1.015
6.904,-1.07
6.906,-1.105
6.908,-1.09
6.91,-1.06
6.912,-0.98
6.914,-0.955
6.916,-0.915
6.918,-0.93
6.92,-0.955
6.922,-1.015
6.924,-1.045
6.926,-1.1
6.928,-1.055
6.93,-1.035
6.932,-0.99
6.934,-0.97
6.936,-0.92
6.938,-0.915
6.94,-0.9
6.942,-0.955
6.944,-1
6.946,-1.065
6.948,-1.06
6.95,-1.04
6.952,-1.02
6.954,-0.975
6.956,-0.915
6.958,-0.9
6.96,-0.89
6.962,-0.96
6.964,-1
6.966,-1.05
6.968,-1.015
6.97,-1.04
6.972,-1.02
6.974,-1.015
6.976,-0.895
6.978,-0.9
6.98,-0.955
6.982,-1.03
6.984,-1.04
6.986,-1.1
6.988,-1.065
6.99,-1.06
6.992,-0.985
6.994,-0.995
6.996,-0.865
6.998,-0.89
7,-0.965
7.002,-1.035
7.004,-1.03
7.006,-1.105
7.008,-1.105
7.01,-1.05
7.012,-1.01
7.014,-0.995
7.016,-0.915
7.018,-0.93
7.02,-1
7.022,-1.07
7.024,-1.035
7.026,-1.08
7.028,-1.07
7.03,-1.015
7.032,-0.94
7.034,-0.95
7.036,-0.89
7.038,-0.935
7.04,-0.98
7.042,-1.06
7.044,-1.06
7.046,-1.14
7.048,-1.115
7.05,-1.035
7.052,-0.99
7.054,-0.965
7.056,-0.88
7.058,-0.89
7.06,-0.91
7.062,-0.95
7.064,-1.05
7.066,-1.12
7.068,-1.135
7.07,-1.08
7.072,-1.005
7.074,-0.97
7.076,-0.885
7.078,-0.88
7.08,-0.92
7.082,-0.96
7.084,-0.985
7.086,-1.04
7.088,-1.035
7.09,-1
7.092,-0.97
7.094,-0.96
7.096,-0.93
7.098,-0.945
7.1,-1.02
7.102,-1.07
7.104,-1.065
7.106,-1.075
7.108,-1.065
7.11,-1.03
7.112,-0.99
7.114,-0.96
7.116,-0.92
7.118,-0.9
7.12,-0.94
7.122,-1.02
7.124,-1.09
7.126,-1.135
7.128,-1.125
7.13,-1.055
7.132,-0.99
7.134,-0.98
7.136,-0.87
7.138,-0.895
7.14,-0.965
7.142,-1.065
7.144,-1.04
7.146,-1.06
7.148,-1.055
7.15,-0.99
7.152,-0.945
7.154,-0.915
7.156,-0.91
7.158,-0.93
7.16,-0.955
7.162,-1.02
7.164,-1.06
7.166,-1.06
7.168,-1.09
7.17,-1.025
7.172,-0.98
7.174,-0.915
7.176,-0.915
7.178,-0.905
7.18,-0.965
7.182,-1.02
7.184,-1.07
7.186,-1.065
7.188,-1.09
7.19,-1.05
7.192,-1.02
7.194,-0.965
7.196,-0.925
7.198,-0.925
7.2,-0.995
7.202,-1.03
7.204,-1.08
7.206,-1.065
7.208,-1.04
7.21,-1.025
7.212,-0.975
7.214,-0.925
7.216,-0.91
7.218,-0.945
7.22,-1.005
7.222,-1.01
7.224,-1.08
7.226,-1.08
7.228,-1.105
7.23,-1
7.232,-0.925
7.234,-0.895
7.236,-0.88
7.238,-0.93
7.24,-1.005
7.242,-1.025
7.244,-1.09
7.246,-1.115
7.248,-1.045
7.25,-0.945
7.252,-0.95
7.254,-0.885
7.256,-0.875
7.258,-0.895
7.26,-0.985
7.262,-0.995
7.264,-1.05
7.266,-1.02
7.268,-0.97
7.27,-0.88
7.272,-0.86
7.274,-0.815
7.276,-0.855
7.278,-0.91
7.28,-0.985
7.282,-1.04
7.284,-1.125
7.286,-1.095
7.288,-1.04
7.29,-0.955
7.292,-0.94
7.294,-0.875
7.296,-0.86
7.298,-0.88
7.3,-0.99
7.302,-1.07
7.304,-1.11
7.306,-1.115
7.308,-1.055
7.31,-0.975
7.312,-0.945
7.314,-0.85
7.316,-0.895
7.318,-0.95
7.32,-1.055
7.322,-1.1
7.324,-1.145
7.326,-1.085
7.328,-1.02
7.33,-0.955
7.332,-0.96
7.334,-0.905
7.336,-0.895
7.338,-0.895
7.34,-0.935
7.342,-0.945
7.344,-0.965
7.346,-0.93
7.348,-0.86
7.35,-0.765
7.352,-0.755
7.354,-0.68
7.356,-0.62
7.358,-0.695
7.36,-0.83
7.362,-0.845
7.364,-0.995
7.366,-1.04
7.368,-1.04
7.37,-1.06
7.372,-1.095
7.374,-1.105
7.376,-1.16
7.378,-1.28
7.38,-1.435
7.382,-1.515
7.384,-1.64
7.386,-1.645
7.388,-1.54
7.39,-1.395
7.392,-1.35
7.394,-1.25
7.396,-1.21
7.398,-1.22
7.4,-1.245
7.402,-1.215
7.404,-1.195
7.406,-1.155
7.408,-1.085
7.41,-1.005
7.412,-1
7.414,-0.955
7.416,-0.965
7.418,-1.035
7.42,-1.045
7.422,-1.045
7.424,-1.07
7.426,-1.045
7.428,-0.95
7.43,-0.89
7.432,-0.885
7.434,-0.87
7.436,-0.875
7.438,-0.95
7.44,-1.035
7.442,-1.06
7.444,-1.055
7.446,-1.07
7.448,-1
7.45,-0.96
7.452,-0.905
7.454,-0.87
7.456,-0.86
7.458,-0.94
7.46,-1.005
7.462,-1
7.464,-0.965
7.466,-0.965
7.468,-0.925
7.47,-0.865
7.472,-0.86
7.474,-0.825
7.476,-0.845
7.478,-0.945
7.48,-0.98
7.482,-0.99
7.484,-0.97
7.486,-0.965
7.488,-0.935
7.49,-0.875
7.492,-0.8
7.494,-0.77
7.496,-0.86
7.498,-0.94
7.5,-0.995
7.502,-1.005
7.504,-0.98
7.506,-0.965
7.508,-0.905
7.51,-0.835
7.512,-0.76
7.514,-0.77
7.516,-0.81
7.518,-0.875
7.52,-0.915
7.522,-0.975
7.524,-0.92
7.526,-0.915
7.528,-0.84
7.53,-0.75
7.532,-0.72
7.534,-0.745
7.536,-0.76
7.538,-0.855
7.54,-0.875
7.542,-0.935
7.544,-0.88
7.546,-0.795
7.548,-0.795
7.55,-0.835
7.552,-0.775
7.554,-0.74
7.556,-0.76
7.558,-0.81
7.56,-0.85
7.562,-0.91
7.564,-0.835
7.566,-0.8
7.568,-0.71
7.57,-0.705
7.572,-0.635
7.574,-0.695
7.576,-0.73
7.578,-0.8
7.58,-0.8
7.582,-0.81
7.584,-0.79
7.586,-0.77
7.588,-0.685
7.59,-0.65
7.592,-0.6
7.594,-0.615
7.596,-0.62
7.598,-0.65
7.6,-0.65
7.602,-0.755
7.604,-0.725
7.606,-0.7
7.608,-0.59
7.61,-0.6
7.612,-0.5
7.614,-0.54
7.616,-0.61
7.618,-0.645
7.62,-0.65
7.622,-0.705
7.624,-0.7
7.626,-0.71
7.628,-0.66
7.63,-0.66
7.632,-0.56
7.634,-0.53
7.636,-0.555
7.638,-0.635
7.64,-0.655
7.642,-0.745
7.644,-0.765
7.646,-0.745
7.648,-0.66
7.65,-0.645
7.652,-0.64
7.654,-0.65
7.656,-0.675
7.658,-0.75
7.66,-0.835
7.662,-0.915
7.664,-0.91
7.666,-0.87
7.668,-0.815
7.67,-0.77
7.672,-0.72
7.674,-0.755
7.676,-0.845
7.678,-0.915
7.68,-0.93
7.682,-0.98
7.684,-0.97
7.686,-0.895
7.688,-0.84
7.69,-0.89
7.692,-0.85
7.694,-0.83
7.696,-0.87
7.698,-0.94
7.7,-0.98
7.702,-1.045
7.704,-1.01
7.706,-0.965
7.708,-0.905
7.71,-0.905
7.712,-0.895
7.714,-0.865
7.716,-0.955
7.718,-1.06
7.72,-1.03
7.722,-1.04
7.724,-1.04
7.726,-1.025
7.728,-0.95
7.73,-0.94
7.732,-0.905
7.734,-0.91
7.736,-0.97
7.738,-1.02
7.74,-1.03
7.742,-1.07
7.744,-1.025
7.746,-1.005
7.748,-0.915
7.75,-0.885
7.752,-0.85
7.754,-0.885
7.756,-0.985
7.758,-1.06
7.76,-1.105
7.762,-1.125
7.764,-1.085
7.766,-1
7.768,-0.92
7.77,-0.89
7.772,-0.855
7.774,-0.895
7.776,-0.98
7.778,-0.99
7.78,-1.015
7.782,-1.075
7.784,-1.025
7.786,-0.91
7.788,-0.9
7.79,-0.85
7.792,-0.865
7.794,-0.845
7.796,-0.905
7.798,-0.975
7.8,-1.04
7.802,-1.07
7.804,-1.045
7.806,-1.005
7.808,-0.95
7.81,-0.915
7.812,-0.915
7.814,-0.89
7.816,-0.955
7.818,-1.01
7.82,-1.075
7.822,-1.02
7.824,-0.97
7.826,-0.9
7.828,-0.895
7.83,-0.825
7.832,-0.825
7.834,-0.89
7.836,-0.955
7.838,-0.975
7.84,-1.035
7.842,-1.015
7.844,-1.005
7.846,-0.935
7.848,-0.89
7.85,-0.9
7.852,-0.91
7.854,-0.965
7.856,-1.045
7.858,-1.065
7.86,-1.115
7.862,-1.08
7.864,-1.01
7.866,-0.895
7.868,-0.89
7.87,-0.815
7.872,-0.805
7.874,-0.85
7.876,-0.955
7.878,-1.025
7.88,-1.06
7.882,-1.045
7.884,-0.97
7.886,-0.895
7.888,-0.87
7.89,-0.805
7.892,-0.83
7.894,-0.875
7.896,-0.965
7.898,-1.035
7.9,-1.105
7.902,-1.075
7.904,-1
7.906,-0.965
7.908,-0.95
7.91,-0.825
7.912,-0.845
7.914,-0.915
7.916,-1.005
7.918,-1.03
7.92,-1.105
7.922,-1.115
7.924,-1.085
7.926,-0.99
7.928,-0.965
7.93,-0.875
7.932,-0.855
7.934,-0.895
7.936,-0.985
7.938,-1
7.94,-1.08
7.942,-1.055
7.944,-1.015
7.946,-0.98
7.948,-0.92
7.95,-0.855
7.952,-0.89
7.954,-0.96
7.956,-1
7.958,-0.97
7.96,-1.07
7.962,-1.08
7.964,-1.025
7.966,-0.935
7.968,-0.955
7.97,-0.905
7.972,-0.885
7.974,-0.965
7.976,-1.045
7.978,-1.01
7.98,-1.09
7.982,-1.06
7.984,-0.985
7.986,-0.89
7.988,-0.88
7.99,-0.82
7.992,-0.825
7.994,-0.905
7.996,-0.975
7.998,-1
8,-1.06
8.002,-1.07
8.004,-1.07
8.006,-0.97
8.008,-0.955
8.01,-0.92
8.012,-0.925
8.014,-0.97
8.016,-0.985
8.018,-0.985
8.02,-1.045
8.022,-1.035
8.024,-0.985
8.026,-0.925
8.028,-0.91
8.03,-0.9
8.032,-0.9
8.034,-0.945
8.036,-1.02
8.038,-1.04
8.04,-1.045
8.042,-1.07
8.044,-1.005
8.046,-0.935
8.048,-0.9
8.05,-0.925
8.052,-0.97
8.054,-0.965
8.056,-1
8.058,-1.045
8.06,-1.065
8.062,-1.045
8.064,-0.985
8.066,-0.925
8.068,-0.895
8.07,-0.905
8.072,-0.88
8.074,-0.97
8.076,-1
8.078,-1.03
8.08,-1.04
8.082,-1.01
8.084,-0.975
8.086,-0.96
8.088,-0.91
8.09,-0.895
8.092,-0.94
8.094,-1
8.096,-1.04
8.098,-1.075
8.1,-1.08
8.102,-1.04
8.104,-0.955
8.106,-0.935
8.108,-0.885
8.11,-0.91
8.112,-0.885
8.114,-0.985
8.116,-1.055
8.118,-1.075
8.12,-1.085
8.122,-1.07
8.124,-0.96
8.126,-0.9
8.128,-0.845
8.13,-0.87
8.132,-0.875
8.134,-1.005
8.136,-1.045
8.138,-1.12
8.14,-1.12
8.142,-1.08
8.144,-0.99
8.146,-0.91
8.148,-0.815
8.15,-0.855
8.152,-0.93
8.154,-0.99
8.156,-1.01
8.158,-1.06
8.16,-1.03
8.162,-1.04
8.164,-0.995
8.166,-0.955
8.168,-0.895
8.17,-0.915
8.172,-0.9
8.174,-0.99
8.176,-1.05
8.178,-1.1
8.18,-1.065
8.182,-1.01
8.184,-0.95
8.186,-0.94
8.188,-0.835
8.19,-0.885
8.192,-0.97
8.194,-1.05
8.196,-1.045
8.198,-1.09
8.2,-1.08
8.202,-1.035
8.204,-0.925
8.206,-0.93
8.208,-0.895
8.21,-0.92
8.212,-1
8.214,-1.045
8.216,-1.025
8.218,-1.075
8.22,-1.03
8.222,-1.02
8.224,-0.975
8.226,-0.97
8.228,-0.9
8.23,-0.89
8.232,-0.93
8.234,-1.01
8.236,-0.955
8.238,-1.04
8.24,-1.045
8.242,-1.035
8.244,-0.935
8.246,-0.935
8.248,-0.88
8.25,-0.875
8.252,-0.92
8.254,-1.025
8.256,-1.07
8.258,-1.1
8.26,-1.08
8.262,-1.02
8.264,-0.96
8.266,-0.95
8.268,-0.92
8.27,-0.93
8.272,-0.975
8.274,-1.03
8.276,-1.03
8.278,-1.085
8.28,-1.08
8.282,-1.02
8.284,-0.95
8.286,-0.915
8.288,-0.88
8.29,-0.88
8.292,-0.97
8.294,-1.04
8.296,-1.035
8.298,-1.095
8.3,-1.08
8.302,-1.04
8.304,-0.91
8.306,-0.925
8.308,-0.885
8.31,-0.945
8.312,-0.98
8.314,-1.005
8.316,-0.955
8.318,-1
8.32,-1.025
8.322,-0.98
8.324,-0.93
8.326,-0.92
8.328,-0.875
8.33,-0.88
8.332,-0.89
8.334,-0.965
8.336,-1.03
8.338,-1.035
8.34,-1.035
8.342,-0.955
8.344,-0.875
8.346,-0.865
8.348,-0.815
8.35,-0.835
8.352,-0.91
8.354,-1.005
8.356,-1.07
8.358,-1.09
8.36,-1.05
8.362,-0.975
8.364,-0.9
8.366,-0.89
8.368,-0.835
8.37,-0.875
8.372,-0.975
8.374,-1.015
8.376,-1.08
8.378,-1.09
8.38,-1.085
8.382,-1
8.384,-0.955
8.386,-0.895
8.388,-0.89
8.39,-0.9
8.392,-0.955
8.394,-1.02
8.396,-1.065
8.398,-1.045
8.4,-1.02
8.402,-1.015
8.404,-0.95
8.406,-0.89
8.408,-0.88
8.41,-0.91
8.412,-0.98
8.414,-0.995
8.416,-1.06
8.418,-1.07
8.42,-1.07
8.422,-1.005
8.424,-0.93
8.426,-0.83
8.428,-0.835
8.43,-0.835
8.432,-0.885
8.434,-0.935
8.436,-0.945
8.438,-0.885
8.44,-0.88
8.442,-0.78
8.444,-0.71
8.446,-0.66
8.448,-0.715
8.45,-0.8
8.452,-0.86
8.454,-0.95
8.456,-1.075
8.458,-1.095
8.46,-1.165
8.462,-1.185
8.464,-1.18
8.466,-1.165
8.468,-1.255
8.47,-1.38
8.472,-1.48
8.474,-1.565
8.476,-1.64
8.478,-1.6
8.48,-1.51
8.482,-1.37
8.484,-1.28
8.486,-1.18
8.488,-1.15
8.49,-1.13
8.492,-1.185
8.494,-1.18
8.496,-1.19
8.498,-1.14
8.5,-1.045
8.502,-0.995
8.504,-0.925
8.506,-0.87
8.508,-0.895
8.51,-0.95
8.512,-1
8.514,-1.055
8.516,-1.115
8.518,-1.09
8.52,-1.04
8.522,-0.945
8.524,-0.905
8.526,-0.805
8.528,-0.805
8.53,-0.845
8.532,-0.91
8.534,-0.94
8.536,-1.05
8.538,-1.055
8.54,-0.985
8.542,-0.92
8.544,-0.9
8.546,-0.835
8.548,-0.85
8.55,-0.88
8.552,-0.955
8.554,-0.925
8.556,-0.99
8.558,-0.97
8.56,-0.955
8.562,-0.895
8.564,-0.87
8.566,-0.805
8.568,-0.805
8.57,-0.86
8.572,-0.895
8.574,-0.905
8.576,-0.965
8.578,-0.955
8.58,-0.91
8.582,-0.88
8.584,-0.865
8.586,-0.76
8.588,-0.78
8.59,-0.83
8.592,-0.9
8.594,-0.92
8.596,-0.96
8.598,-0.955
8.6,-0.895
8.602,-0.85
8.604,-0.805
8.606,-0.73
8.608,-0.77
8.61,-0.86
8.612,-0.86
8.614,-0.825
8.616,-0.95
8.618,-0.965
8.62,-0.845
8.622,-0.77
8.624,-0.785
8.626,-0.72
8.628,-0.73
8.63,-0.79
8.632,-0.785
8.634,-0.86
8.636,-0.985
8.638,-0.995
8.64,-0.905
8.642,-0.8
8.644,-0.765
8.646,-0.705
8.648,-0.715
8.65,-0.775
8.652,-0.835
8.654,-0.84
8.656,-0.875
8.658,-0.865
8.66,-0.765
8.662,-0.695
8.664,-0.71
8.666,-0.68
8.668,-0.675
8.67,-0.755
8.672,-0.78
8.674,-0.815
8.676,-0.795
8.678,-0.745
8.68,-0.65
8.682,-0.64
8.684,-0.605
8.686,-0.56
8.688,-0.52
8.69,-0.61
8.692,-0.645
8.694,-0.705
8.696,-0.7
8.698,-0.685
8.7,-0.61
8.702,-0.55
8.704,-0.52
8.706,-0.52
8.708,-0.555
8.71,-0.59
8.712,-0.655
8.714,-0.715
8.716,-0.715
8.718,-0.665
8.72,-0.605
8.722,-0.595
8.724,-0.53
8.726,-0.535
8.728,-0.6
8.73,-0.685
8.732,-0.755
8.734,-0.865
8.736,-0.835
8.738,-0.765
8.74,-0.68
8.742,-0.68
8.744,-0.64
8.746,-0.64
8.748,-0.665
8.75,-0.74
8.752,-0.765
8.754,-0.855
8.756,-0.865
8.758,-0.91
8.76,-0.86
8.762,-0.785
8.764,-0.74
8.766,-0.755
8.768,-0.8
8.77,-0.86
8.772,-0.92
8.774,-1.015
8.776,-1.005
8.778,-1.015
8.78,-0.945
8.782,-0.92
8.784,-0.87
8.786,-0.88
8.788,-0.95
8.79,-1.02
8.792,-1.005
8.794,-1.055
8.796,-1.03
8.798,-0.98
8.8,-0.9
8.802,-0.905
8.804,-0.855
8.806,-0.86
8.808,-0.915
8.81,-1
8.812,-1.015
8.814,-1.095
8.816,-1.09
8.818,-1.045
8.82,-0.985
8.822,-0.975
8.824,-0.875
8.826,-0.875
8.828,-0.95
8.83,-1.005
8.832,-1.01
8.834,-1.06
8.836,-1.085
8.838,-1.035
8.84,-0.975
8.842,-0.955
8.844,-0.89
8.846,-0.905
8.848,-0.96
8.85,-1.04
8.852,-1.075
8.854,-1.135
8.856,-1.105
8.858,-1.05
8.86,-0.97
8.862,-0.96
8.864,-0.85
8.866,-0.8
8.868,-0.875
8.87,-0.97
8.872,-0.99
8.874,-1.075
8.876,-1.105
8.878,-1.06
8.88,-1
8.882,-1.01
8.884,-0.895
8.886,-0.9
8.888,-0.945
8.89,-1.035
8.892,-1.02
8.894,-1.025
8.896,-1.015
8.898,-0.97
8.9,-0.91
8.902,-0.9
8.904,-0.83
8.906,-0.835
8.908,-0.925
8.91,-0.99
8.912,-1.01
8.914,-1.08
8.916,-1.03
8.918,-0.97
8.92,-0.905
8.922,-0.885
8.924,-0.845
8.926,-0.855
8.928,-0.92
8.93,-0.99
8.932,-1.02
8.934,-1.055
8.936,-1.03
8.938,-0.965
8.94,-0.905
8.942,-0.905
8.944,-0.87
8.946,-0.88
8.948,-0.95
8.95,-1.01
8.952,-1
8.954,-1.05
8.956,-1.045
8.958,-0.985
8.96,-0.865
8.962,-0.825
8.964,-0.815
8.966,-0.835
8.968,-0.915
8.97,-0.95
8.972,-1.025
8.974,-1.025
8.976,-0.98
8.978,-0.885
8.98,-0.825
8.982,-0.775
8.984,-0.8
8.986,-0.86
8.988,-0.955
8.99,-1.03
8.992,-1.04
8.994,-1.035
8.996,-1.06
8.998,-1.015
9,-0.935
9.002,-0.89
9.004,-0.875
9.006,-0.91
9.008,-1.02
9.01,-1.05
9.012,-1.04
9.014,-1.04
9.016,-1.025
9.018,-0.955
9.02,-0.9
9.022,-0.845
9.024,-0.845
9.026,-0.865
9.028,-0.95
9.03,-1.005
9.032,-1.08
9.034,-1.05
9.036,-1.05
9.038,-0.975
9.04,-0.945
9.042,-0.885
9.044,-0.87
9.046,-0.91
9.048,-0.975
9.05,-1.045
9.052,-1.08
9.054,-1.045
9.056,-1.015
9.058,-0.98
9.06,-0.975
9.062,-0.915
9.064,-0.905
9.066,-0.91
9.068,-0.935
9.07,-0.95
9.072,-1.04
9.074,-1.04
9.076,-1.015
9.078,-0.935
9.08,-0.92
9.082,-0.86
9.084,-0.89
9.086,-0.895
9.088,-0.98
9.09,-1.005
9.092,-1.035
9.094,-1.01
9.096,-1
9.098,-0.915
9.1,-0.875
9.102,-0.87
9.104,-0.915
9.106,-0.97
9.108,-0.985
9.11,-0.98
9.112,-1.085
9.114,-1.09
9.116,-1.005
9.118,-0.96
9.12,-0.98
9.122,-0.915
9.124,-0.935
9.126,-1
9.128,-1.035
9.13,-1.03
9.132,-1.11
9.134,-1.09
9.136,-1.05
9.138,-0.96
9.14,-0.945
9.142,-0.895
9.144,-0.915
9.146,-0.965
9.148,-1.01
9.15,-1.03
9.152,-1.125
9.154,-1.105
9.156,-1.035
9.158,-0.995
9.16,-0.955
9.162,-0.9
9.164,-0.915
9.166,-0.965
9.168,-1.025
9.17,-1.025
9.172,-1.085
9.174,-1.09
9.176,-1.02
9.178,-0.985
9.18,-0.965
9.182,-0.895
9.184,-0.86
9.186,-0.93
9.188,-1.015
9.19,-1.035
9.192,-1.115
9.194,-1.1
9.196,-1.025
9.198,-0.965
9.2,-0.925
9.202,-0.915
9.204,-0.875
9.206,-0.98
9.208,-1.075
9.21,-1.08
9.212,-1.135
9.214,-1.11
9.216,-1.075
9.218,-0.91
9.22,-0.885
9.222,-0.86
9.224,-0.915
9.226,-0.955
9.228,-1.03
9.23,-1.015
9.232,-1.035
9.234,-1.04
9.236,-1.015
9.238,-0.95
9.24,-0.955
9.242,-0.92
9.244,-0.915
9.246,-0.97
9.248,-1.035
9.25,-1.09
9.252,-1.1
9.254,-1.075
9.256,-1.03
9.258,-0.98
9.26,-0.96
9.262,-0.915
9.264,-0.925
9.266,-1.005
9.268,-1.06
9.27,-1.08
9.272,-1.095
9.274,-1.075
9.276,-0.98
9.278,-0.91
9.28,-0.915
9.282,-0.94
9.284,-0.96
9.286,-1.035
9.288,-1.09
9.29,-1.115
9.292,-1.105
9.294,-1.1
9.296,-1.035
9.298,-0.965
9.3,-0.935
9.302,-0.94
9.304,-0.97
9.306,-1.04
9.308,-1.04
9.31,-1.065
9.312,-1.07
9.314,-1.095
9.316,-1.04
9.318,-0.995
9.32,-0.9
9.322,-0.905
9.324,-0.95
9.326,-1.03
9.328,-1.055
9.33,-1.105
9.332,-1.115
9.334,-1.065
9.336,-0.98
9.338,-0.97
9.34,-0.93
9.342,-0.975
9.344,-0.995
9.346,-1.025
9.348,-1.03
9.35,-1.045
9.352,-1.03
9.354,-0.99
9.356,-0.95
9.358,-0.95
9.36,-0.905
9.362,-0.93
9.364,-0.99
9.366,-1.03
9.368,-1.045
9.37,-1.105
9.372,-1.09
9.374,-1.065
9.376,-1.005
9.378,-0.975
9.38,-0.905
9.382,-0.935
9.384,-0.97
9.386,-1.005
9.388,-1.045
9.39,-1.115
9.392,-1.08
9.394,-1.025
9.396,-0.97
9.398,-0.95
9.4,-0.915
9.402,-0.94
9.404,-0.94
9.406,-1.015
9.408,-1.055
9.41,-1.115
9.412,-1.085
9.414,-1.035
9.416,-0.945
9.418,-0.92
9.42,-0.88
9.422,-0.93
9.424,-0.98
9.426,-1.06
9.428,-1.035
9.43,-1.095
9.432,-1.09
9.434,-1.025
9.436,-0.98
9.438,-1
9.44,-0.89
9.442,-0.88
9.444,-0.94
9.446,-1.045
9.448,-1.04
9.45,-1.11
9.452,-1.08
9.454,-1.085
9.456,-0.995
9.458,-0.95
9.46,-0.875
9.462,-0.915
9.464,-0.995
9.466,-1.06
9.468,-1.06
9.47,-1.12
9.472,-1.09
9.474,-1.03
9.476,-0.915
9.478,-0.91
9.48,-0.855
9.482,-0.865
9.484,-0.93
9.486,-1.025
9.488,-1.05
9.49,-1.07
9.492,-1.025
9.494,-0.985
9.496,-0.925
9.498,-0.975
9.5,-0.91
9.502,-0.915
9.504,-0.975
9.506,-1.035
9.508,-1.02
9.51,-1.05
9.512,-0.985
9.514,-0.955
9.516,-0.91
9.518,-0.915
9.52,-0.88
9.522,-0.865
9.524,-0.94
9.526,-0.965
9.528,-0.975
9.53,-1.015
9.532,-1.025
9.534,-0.965
9.536,-0.905
9.538,-0.92
9.54,-0.875
9.542,-0.895
9.544,-0.995
9.546,-1.03
9.548,-0.985
9.55,-1.01
9.552,-1.035
9.554,-0.98
9.556,-0.965
9.558,-0.97
9.56,-0.965
9.562,-0.98
9.564,-1.095
9.566,-1.135
9.568,-1.085
9.57,-1.09
9.572,-1.035
9.574,-0.93
9.576,-0.91
9.578,-0.905
9.58,-0.895
9.582,-0.91
9.584,-1.005
9.586,-1.07
9.588,-1.11
9.59,-1.135
9.592,-1.115
9.594,-1.025
9.596,-0.96
9.598,-0.955
9.6,-0.89
9.602,-0.865
9.604,-0.9
9.606,-0.92
9.608,-1.015
9.61,-1.035
9.612,-0.955
9.614,-0.81
9.616,-0.72
9.618,-0.645
9.62,-0.615
9.622,-0.615
9.624,-0.73
9.626,-0.795
9.628,-0.88
9.63,-0.94
9.632,-1
9.634,-1.05
9.636,-1.14
9.638,-1.165
9.64,-1.225
9.642,-1.26
9.644,-1.4
9.646,-1.535
9.648,-1.635
9.65,-1.665
9.652,-1.615
9.654,-1.44
9.656,-1.35
9.658,-1.22
9.66,-1.24
9.662,-1.18
9.664,-1.225
9.666,-1.245
9.668,-1.29
9.67,-1.22
9.672,-1.175
9.674,-1.085
9.676,-1.02
9.678,-0.92
9.68,-0.925
9.682,-0.965
9.684,-1.05
9.686,-1.08
9.688,-1.125
9.69,-1.09
9.692,-1.02
9.694,-0.955
9.696,-0.925
9.698,-0.89
9.7,-0.93
9.702,-0.94
9.704,-1.015
9.706,-1.035
9.708,-1.115
9.71,-1.065
9.712,-1.04
9.714,-0.96
9.716,-0.925
9.718,-0.9
9.72,-0.85
9.722,-0.85
9.724,-0.93
9.726,-0.955
9.728,-1.005
9.73,-0.965
9.732,-0.93
9.734,-0.885
9.736,-0.885
9.738,-0.805
9.74,-0.81
9.742,-0.88
9.744,-0.955
9.746,-0.93
9.748,-1.01
9.75,-1.04
9.752,-0.99
9.754,-0.9
9.756,-0.92
9.758,-0.85
9.76,-0.84
9.762,-0.875
9.764,-0.95
9.766,-0.98
9.768,-1.02
9.77,-0.995
9.772,-0.94
9.774,-0.89
9.776,-0.9
9.778,-0.805
9.78,-0.78
9.782,-0.83
9.784,-0.89
9.786,-0.91
9.788,-0.975
9.79,-0.96
9.792,-0.91
9.794,-0.815
9.796,-0.815
9.798,-0.79
9.8,-0.8
9.802,-0.845
9.804,-0.88
9.806,-0.85
9.808,-0.955
9.81,-0.945
9.812,-0.89
9.814,-0.87
9.816,-0.845
9.818,-0.785
9.82,-0.78
9.822,-0.795
9.824,-0.83
9.826,-0.815
9.828,-0.84
9.83,-0.84
9.832,-0.78
9.834,-0.725
9.836,-0.665
9.838,-0.615
9.84,-0.635
9.842,-0.695
9.844,-0.78
9.846,-0.785
9.848,-0.79
9.85,-0.8
9.852,-0.73
9.854,-0.625
9.856,-0.59
9.858,-0.56
9.86,-0.565
9.862,-0.69
9.864,-0.75
9.866,-0.735
9.868,-0.76
9.87,-0.725
9.872,-0.65
9.874,-0.605
9.876,-0.57
9.878,-0.545
9.88,-0.515
9.882,-0.565
9.884,-0.66
9.886,-0.715
9.888,-0.715
9.89,-0.7
9.892,-0.62
9.894,-0.585
9.896,-0.56
9.898,-0.52
9.9,-0.515
9.902,-0.61
9.904,-0.68
9.906,-0.765
9.908,-0.77
9.91,-0.76
9.912,-0.7
9.914,-0.69
9.916,-0.655
9.918,-0.66
9.92,-0.67
9.922,-0.7
9.924,-0.745
9.926,-0.8
9.928,-0.83
9.93,-0.83
9.932,-0.78
9.934,-0.75
9.936,-0.72
9.938,-0.71
9.94,-0.74
9.942,-0.82
9.944,-0.855
9.946,-0.955
9.948,-0.985
9.95,-0.97
9.952,-0.89
9.954,-0.85
9.956,-0.825
9.958,-0.815
9.96,-0.84
9.962,-0.925
9.964,-0.95
9.966,-1
9.968,-1.04
9.97,-0.995
9.972,-0.935
9.974,-0.895
9.976,-0.865
9.978,-0.87
9.98,-0.935
9.982,-1
9.984,-0.98
9.986,-1.015
9.988,-1.02
9.99,-0.99
9.992,-0.935
9.994,-0.92
9.996,-0.865
9.998,-0.885
