0,0.215
0.002,0.32
0.004,0.49
0.006,0.64
0.008,0.765
0.01,0.825
0.012,0.93
0.014,0.795
0.016,0.58
0.018,0.515
0.02,0.56
0.022,0.575
0.024,0.57
0.026,0.655
0.028,0.57
0.03,0.315
0.032,0.13
0.034,-0.07
0.036,-0.13
0.038,-0.1
0.04,-0.135
0.042,0.06
0.044,0.2
0.046,0.16
0.048,0.1
0.05,0.13
0.052,0.045
0.054,-0.01
0.056,-0.11
0.058,-0.03
0.06,-0.005
0.062,-0.015
0.064,0.085
0.066,0.185
0.068,0.085
0.07,-0.05
0.072,-0.085
0.074,-0.135
0.076,-0.095
0.078,0.02
0.08,-0.08
0.082,-0.025
0.084,0.155
0.086,0.07
0.088,-0.005
0.09,0.045
0.092,-0.055
0.094,-0.285
0.096,-0.175
0.098,-0.115
0.1,-0.01
0.102,0.04
0.104,-0.035
0.106,0.185
0.108,0.155
0.11,0.095
0.112,-0.055
0.114,-0.12
0.116,-0.05
0.118,-0.055
0.12,0.035
0.122,0.12
0.124,0.215
0.126,0.19
0.128,0.21
0.13,0.055
0.132,0.135
0.134,0
0.136,-0.05
0.138,0.05
0.14,-0.025
0.142,-0.01
0.144,0.19
0.146,0.13
0.148,0.185
0.15,-0.03
0.152,0.065
0.154,-0.125
0.156,-0.085
0.158,-0.075
0.16,-0.07
0.162,0.075
0.164,0.145
0.166,0.155
0.168,0.18
0.17,0.035
0.172,-0.015
0.174,-0.07
0.176,-0.01
0.178,-0.05
0.18,0.095
0.182,-0.01
0.184,0.17
0.186,0.325
0.188,0.15
0.19,0.04
0.192,0.085
0.194,0.015
0.196,0
0.198,0.035
0.2,0.275
0.202,0.215
0.204,0.315
0.206,0.345
0.208,0.26
0.21,0.175
0.212,0.13
0.214,0.08
0.216,0.12
0.218,0.09
0.22,0.1
0.222,0.23
0.224,0.39
0.226,0.385
0.228,0.37
0.23,0.355
0.232,0.265
0.234,0.215
0.236,0.195
0.238,0.16
0.24,0.29
0.242,0.48
0.244,0.44
0.246,0.31
0.248,0.24
0.25,0.3
0.252,0.315
0.254,0.18
0.256,0.125
0.258,0.24
0.26,0.355
0.262,0.39
0.264,0.36
0.266,0.41
0.268,0.335
0.27,0.215
0.272,0.27
0.274,0.04
0.276,0.15
0.278,0.24
0.28,0.235
0.282,0.375
0.284,0.415
0.286,0.355
0.288,0.17
0.29,0.09
0.292,0.165
0.294,0.055
0.296,0.01
0.298,0.02
0.3,0.05
0.302,0.21
0.304,0.245
0.306,0.175
0.308,0.145
0.31,0.05
0.312,-0.06
0.314,-0.03
0.316,-0.035
0.318,0.03
0.32,0.02
0.322,0.105
0.324,0.155
0.326,0.13
0.328,0.1
0.33,0.105
0.332,-0.02
0.334,-0.08
0.336,-0.08
0.338,-0.09
0.34,0.03
0.342,0.17
0.344,0.14
0.346,0.185
0.348,0.025
0.35,-0.04
0.352,-0.09
0.354,-0.055
0.356,-0.06
0.358,-0.115
0.36,0.135
0.362,0.26
0.364,0.26
0.366,-0.045
0.368,0.045
0.37,0.025
0.372,-0.06
0.374,-0.12
0.376,-0.06
0.378,0.095
0.38,0.065
0.382,0.23
0.384,0.175
0.386,0.15
0.388,0.005
0.39,-0.005
0.392,-0.07
0.394,-0.175
0.396,-0.085
0.398,-0.025
0.4,-0.01
0.402,0.165
0.404,0.03
0.406,0.105
0.408,0.04
0.41,-0.015
0.412,-0.115
0.414,-0.07
0.416,-0.02
0.418,-0.02
0.42,0.105
0.422,0.12
0.424,0.19
0.426,0.105
0.428,0.095
0.43,-0.02
0.432,-0.195
0.434,-0.06
0.436,-0.075
0.438,0.02
0.44,0.08
0.442,0.215
0.444,0.245
0.446,0.115
0.448,0.035
0.45,0.06
0.452,-0.1
0.454,-0.12
0.456,-0.125
0.458,0.08
0.46,0.09
0.462,0.185
0.464,0.185
0.466,0.185
0.468,0.1
0.47,0.065
0.472,-0.135
0.474,-0.115
0.476,-0.065
0.478,0.125
0.48,-0.03
0.482,0.115
0.484,0.17
0.486,0.115
0.488,0.035
0.49,-0.045
0.492,-0.155
0.494,-0.045
0.496,-0.025
0.498,0.02
0.5,0.035
0.502,0.13
0.504,0.22
0.506,0.21
0.508,0.03
0.51,-0.03
0.512,0.015
0.514,-0.05
0.516,-0.01
0.518,0.07
0.52,0.19
0.522,0.09
0.524,0.075
0.526,0.095
0.528,0.05
0.53,0.015
0.532,-0.125
0.534,-0.12
0.536,0.045
0.538,0.125
0.54,0.065
0.542,0.25
0.544,0.315
0.546,0.115
0.548,-0.01
0.55,-0.04
0.552,-0.14
0.554,-0.14
0.556,-0.095
0.558,0.035
0.56,0.13
0.562,0.215
0.564,0.145
0.566,0.065
0.568,0.005
0.57,-0.09
0.572,-0.12
0.574,-0.19
0.576,-0.065
0.578,0.005
0.58,0.05
0.582,0.09
0.584,0.13
0.586,0.155
0.588,0.055
0.59,-0.005
0.592,0.07
0.594,-0.055
0.596,0.105
0.598,0.09
0.6,0.1
0.602,0.135
0.604,0.19
0.606,0.05
0.608,0.055
0.61,-0.15
0.612,-0.14
0.614,0.03
0.616,-0.04
0.618,0.135
0.62,0.17
0.622,0.31
0.624,0.15
0.626,0.02
0.628,0.005
0.63,-0.085
0.632,-0.09
0.634,0.02
0.636,-0.015
0.638,-0.01
0.64,0.095
0.642,0.11
0.644,0.06
0.646,0.03
0.648,0.045
0.65,-0.085
0.652,-0.095
0.654,-0.03
0.656,0.01
0.658,0.08
0.66,0.145
0.662,0.195
0.664,0.125
0.666,-0.025
0.668,0.065
0.67,-0.125
0.672,-0.21
0.674,-0.12
0.676,-0.05
0.678,-0.01
0.68,0.09
0.682,0.27
0.684,0.17
0.686,0.035
0.688,0.045
0.69,0
0.692,-0.05
0.694,-0.015
0.696,0.05
0.698,-0.005
0.7,0.11
0.702,0.205
0.704,0.12
0.706,0.09
0.708,0.11
0.71,0.025
0.712,-0.065
0.714,-0.175
0.716,-0.055
0.718,-0.015
0.72,0.275
0.722,0.2
0.724,0.18
0.726,0.04
0.728,-0.06
0.73,-0.16
0.732,-0.12
0.734,-0.05
0.736,0.04
0.738,0.055
0.74,0.185
0.742,0.22
0.744,0.085
0.746,0.025
0.748,-0.05
0.75,-0.13
0.752,-0.175
0.754,-0.09
0.756,0.04
0.758,0.055
0.76,-0.005
0.762,0.065
0.764,0.01
0.766,0.12
0.768,0.03
0.77,-0.11
0.772,0.09
0.774,-0.08
0.776,0.04
0.778,-0.02
0.78,0.255
0.782,0.275
0.784,0.17
0.786,0.045
0.788,0
0.79,0.025
0.792,-0.135
0.794,-0.045
0.796,-0.005
0.798,0.095
0.8,0.135
0.802,0.105
0.804,0.12
0.806,0.09
0.808,0.02
0.81,-0.015
0.812,-0.1
0.814,0.055
0.816,0.09
0.818,0.135
0.82,0.155
0.822,0.285
0.824,0.23
0.826,0.085
0.828,0.055
0.83,-0.03
0.832,-0.015
0.834,0.065
0.836,0.135
0.838,0.13
0.84,0.25
0.842,0.27
0.844,0.175
0.846,0.11
0.848,0.025
0.85,0.005
0.852,0
0.854,-0.005
0.856,0.06
0.858,0.195
0.86,0.19
0.862,0.19
0.864,0.155
0.866,0.045
0.868,0.11
0.87,-0.055
0.872,-0.065
0.874,-0.16
0.876,0.115
0.878,0.2
0.88,0.155
0.882,0.145
0.884,0.125
0.886,0.01
0.888,0.005
0.89,-0.11
0.892,-0.075
0.894,-0.055
0.896,0.065
0.898,0.12
0.9,0.165
0.902,0.12
0.904,0.08
0.906,0.125
0.908,-0.075
0.91,-0.255
0.912,-0.16
0.914,-0.11
0.916,0.035
0.918,0.05
0.92,0.14
0.922,0
0.924,0.1
0.926,-0.065
0.928,-0.06
0.93,-0.08
0.932,-0.07
0.934,-0.045
0.936,-0.04
0.938,0.06
0.94,0.115
0.942,0.09
0.944,-0.05
0.946,-0.13
0.948,-0.145
0.95,-0.16
0.952,-0.04
0.954,0.025
0.956,-0.045
0.958,0.175
0.96,0.19
0.962,0.14
0.964,0.21
0.966,0.09
0.968,0.055
0.97,-0.055
0.972,0.06
0.974,0.035
0.976,0.195
0.978,0.27
0.98,0.305
0.982,0.325
0.984,0.31
0.986,0.335
0.988,0.38
0.99,0.52
0.992,0.735
0.994,0.895
0.996,0.935
0.998,1.02
1,0.89
1.002,0.675
1.004,0.495
1.006,0.54
1.008,0.255
1.01,0.14
1.012,0.225
1.014,0.07
1.016,-0.105
1.018,0.005
1.02,0.055
1.022,0.1
1.024,-0.055
1.026,-0.105
1.028,-0.155
1.03,-0.075
1.032,-0.01
1.034,0.145
1.036,0.08
1.038,0.2
1.04,0.24
1.042,0.11
1.044,0.07
1.046,-0.005
1.048,-0.08
1.05,-0.02
1.052,-0.05
1.054,-0.04
1.056,0.07
1.058,0.115
1.06,0.175
1.062,0.155
1.064,0.055
1.066,-0.005
1.068,-0.13
1.07,-0.12
1.072,-0.13
1.074,0.015
1.076,0
1.078,0.205
1.08,0.205
1.082,0.1
1.084,0.105
1.086,-0.165
1.088,-0.14
1.09,0.02
1.092,-0.015
1.094,0.045
1.096,0.015
1.098,0.01
1.1,0.155
1.102,0.075
1.104,-0.025
1.106,-0.005
1.108,-0.185
1.11,-0.035
1.112,0.035
1.114,0.125
1.116,0.22
1.118,0.175
1.12,0.1
1.122,0.05
1.124,0.045
1.126,0.05
1.128,-0.075
1.13,-0.06
1.132,-0.125
1.134,0.005
1.136,0.05
1.138,0.205
1.14,0.28
1.142,0.185
1.144,0.085
1.146,-0.065
1.148,-0.175
1.15,0.01
1.152,0.045
1.154,0.185
1.156,0.21
1.158,0.18
1.16,0.29
1.162,0.05
1.164,0.03
1.166,0.005
1.168,0.01
1.17,0.04
1.172,0.13
1.174,0.15
1.176,0.245
1.178,0.225
1.18,0.255
1.182,0.205
1.184,0.08
1.186,0.08
1.188,0.025
1.19,0.05
1.192,0.185
1.194,0.095
1.196,0.3
1.198,0.32
1.2,0.345
1.202,0.255
1.204,0.085
1.206,0.04
1.208,0.025
1.21,0.045
1.212,0.16
1.214,0.27
1.216,0.38
1.218,0.445
1.22,0.33
1.222,0.31
1.224,0.38
1.226,0.295
1.228,0.19
1.23,0.25
1.232,0.33
1.234,0.385
1.236,0.475
1.238,0.435
1.24,0.51
1.242,0.405
1.244,0.315
1.246,0.28
1.248,0.21
1.25,0.305
1.252,0.3
1.254,0.265
1.256,0.42
1.258,0.395
1.26,0.285
1.262,0.345
1.264,0.235
1.266,0.035
1.268,0.095
1.27,0.09
1.272,0.185
1.274,0.19
1.276,0.285
1.278,0.275
1.28,0.17
1.282,0.2
1.284,0.035
1.286,-0.035
1.288,-0.035
1.29,-0.015
1.292,0.025
1.294,0.07
1.296,0.155
1.298,0.205
1.3,0.01
1.302,-0.01
1.304,-0.015
1.306,-0.065
1.308,-0.03
1.31,0
1.312,0.08
1.314,0.115
1.316,0.255
1.318,0.205
1.32,0.07
1.322,0
1.324,-0.05
1.326,-0.155
1.328,-0.075
1.33,0.08
1.332,0.05
1.334,0.135
1.336,0.26
1.338,0.165
1.34,0.225
1.342,0.145
1.344,0
1.346,-0.06
1.348,-0.025
1.35,0
1.352,-0.09
1.354,0.095
1.356,0.15
1.358,0.095
1.36,0.125
1.362,0.045
1.364,0.005
1.366,-0.05
1.368,-0.135
1.37,-0.07
1.372,0.065
1.374,0.065
1.376,0.15
1.378,0.15
1.38,0.07
1.382,0.03
1.384,0
1.386,-0.085
1.388,-0.14
1.39,-0.06
1.392,-0.02
1.394,-0.03
1.396,0.11
1.398,0.15
1.4,0.03
1.402,0.025
1.404,0.01
1.406,-0.04
1.408,0.005
1.41,-0.08
1.412,0.06
1.414,0.03
1.416,0.165
1.418,0.13
1.42,0.305
1.422,0.095
1.424,-0.025
1.426,-0.105
1.428,-0.04
1.43,0.04
1.432,0.04
1.434,0.095
1.436,0.29
1.438,0.28
1.44,0.285
1.442,0.06
1.444,-0.105
1.446,-0.06
1.448,-0.155
1.45,-0.07
1.452,-0.045
1.454,0.125
1.456,0.225
1.458,0.265
1.46,0.075
1.462,0.06
1.464,-0.005
1.466,-0.11
1.468,-0.075
1.47,0.05
1.472,0.04
1.474,0.01
1.476,0.17
1.478,0.2
1.48,0.035
1.482,0.045
1.484,-0.03
1.486,-0.055
1.488,-0.005
1.49,-0.06
1.492,0.015
1.494,0.06
1.496,0.13
1.498,0.13
1.5,0.145
1.502,0.005
1.504,0.01
1.506,-0.06
1.508,-0.035
1.51,-0.065
1.512,0.035
1.514,0.145
1.516,0.245
1.518,0.08
1.52,0.155
1.522,0.03
1.524,0.025
1.526,-0.065
1.528,-0.105
1.53,-0.015
1.532,0.065
1.534,0.045
1.536,0.195
1.538,0.275
1.54,0.155
1.542,0.03
1.544,-0.015
1.546,-0.13
1.548,-0.13
1.55,0.025
1.552,0.03
1.554,0.095
1.556,0.19
1.558,0.185
1.56,0.05
1.562,0.015
1.564,-0.11
1.566,-0.095
1.568,-0.045
1.57,-0.07
1.572,0.04
1.574,0.235
1.576,0.17
1.578,0.155
1.58,0.02
1.582,-0.04
1.584,-0.07
1.586,-0.055
1.588,-0.01
1.59,-0.065
1.592,0.07
1.594,0.185
1.596,0.305
1.598,0.245
1.6,0.105
1.602,0.04
1.604,-0.125
1.606,-0.055
1.608,-0.145
1.61,-0.015
1.612,0.105
1.614,0.27
1.616,0.265
1.618,0.2
1.62,-0.09
1.622,-0.14
1.624,-0.09
1.626,-0.07
1.628,-0.045
1.63,-0.05
1.632,-0.05
1.634,0.195
1.636,0.22
1.638,0.12
1.64,0.12
1.642,0.035
1.644,-0.105
1.646,-0.08
1.648,-0.11
1.65,0.01
1.652,0.105
1.654,0.135
1.656,0.18
1.658,0.11
1.66,0.07
1.662,0.06
1.664,-0.145
1.666,-0.09
1.668,-0.07
1.67,0.06
1.672,0.08
1.674,0.115
1.676,0.05
1.678,0.075
1.68,0.08
1.682,-0.045
1.684,-0.165
1.686,-0.065
1.688,0.1
1.69,0.165
1.692,0.075
1.694,0.19
1.696,0.185
1.698,0.17
1.7,0.07
1.702,-0.01
1.704,-0.08
1.706,-0.035
1.708,-0.115
1.71,-0.045
1.712,0.005
1.714,0.3
1.716,0.04
1.718,0.14
1.72,0
1.722,0.005
1.724,0.025
1.726,-0.015
1.728,-0.05
1.73,0.065
1.732,0.075
1.734,0.205
1.736,0.205
1.738,0.135
1.74,0.125
1.742,0.045
1.744,-0.14
1.746,-0.085
1.748,0.005
1.75,0.125
1.752,0.185
1.754,0.26
1.756,0.225
1.758,0.205
1.76,0.06
1.762,0.015
1.764,-0.025
1.766,0.015
1.768,0.2
1.77,0.16
1.772,0.2
1.774,0.295
1.776,0.275
1.778,0.155
1.78,0.16
1.782,-0.025
1.784,-0.09
1.786,-0.05
1.788,0.03
1.79,0.125
1.792,0.295
1.794,0.365
1.796,0.33
1.798,0.09
1.8,0.02
1.802,-0.04
1.804,-0.23
1.806,-0.07
1.808,-0.025
1.81,0.045
1.812,0.085
1.814,0.045
1.816,0.17
1.818,0.025
1.82,-0.045
1.822,-0.13
1.824,-0.04
1.826,-0.09
1.828,0.05
1.83,0.025
1.832,0.1
1.834,0.185
1.836,0.185
1.838,0.11
1.84,0
1.842,-0.095
1.844,-0.08
1.846,-0.13
1.848,-0.06
1.85,0.06
1.852,0.22
1.854,0.11
1.856,0.165
1.858,-0.035
1.86,-0.1
1.862,-0.18
1.864,-0.26
1.866,-0.205
1.868,0.01
1.87,0.06
1.872,0.23
1.874,0.155
1.876,0.185
1.878,0.08
1.88,0.055
1.882,-0.18
1.884,-0.175
1.886,-0.035
1.888,-0.015
1.89,0.085
1.892,0.18
1.894,0.175
1.896,0.135
1.898,0.04
1.9,0.065
1.902,-0.08
1.904,-0.05
1.906,-0.065
1.908,0.01
1.91,0.105
1.912,0.195
1.914,0.295
1.916,0.31
1.918,0.33
1.92,0.355
1.922,0.415
1.924,0.585
1.926,0.505
1.928,0.7
1.93,0.645
1.932,0.78
1.934,0.635
1.936,0.5
1.938,0.555
1.94,0.47
1.942,0.2
1.944,0.23
1.946,0.165
1.948,-0.08
1.95,-0.165
1.952,0.025
1.954,0.015
1.956,-0.055
1.958,0.015
1.96,-0.015
1.962,-0.155
1.964,-0.15
1.966,-0.085
1.968,0.04
1.97,0.15
1.972,0.06
1.974,0.195
1.976,0.055
1.978,0.155
1.98,0.14
1.982,-0.18
1.984,-0.22
1.986,-0.075
1.988,0.15
1.99,0.02
1.992,0.25
1.994,0.175
1.996,0.03
1.998,-0.075
2,0.055
2.002,-0.075
2.004,-0.065
2.006,-0.065
2.008,0.005
2.01,0.09
2.012,0.195
2.014,0.145
2.016,0.17
2.018,0.05
2.02,-0.14
2.022,-0.125
2.024,-0.09
2.026,-0.115
2.028,0.21
2.03,0.135
2.032,0.22
2.034,0.22
2.036,-0.015
2.038,-0.045
2.04,0.005
2.042,-0.195
2.044,-0.06
2.046,0.01
2.048,0.095
2.05,0.17
2.052,0.19
2.054,0.16
2.056,0.155
2.058,0.085
2.06,0.01
2.062,-0.115
2.064,-0.12
2.066,-0.02
2.068,0.15
2.07,0.18
2.072,0.14
2.074,0.28
2.076,0.21
2.078,0.12
2.08,-0.06
2.082,-0.04
2.084,0
2.086,-0.175
2.088,0
2.09,0.215
2.092,0.325
2.094,0.105
2.096,0.115
2.098,0.085
2.1,-0.03
2.102,-0.115
2.104,0.1
2.106,0.2
2.108,0.24
2.11,0.29
2.112,0.35
2.114,0.295
2.116,0.26
2.118,0.18
2.12,-0.025
2.122,-0.01
2.124,0.07
2.126,0.21
2.128,0.19
2.13,0.23
2.132,0.395
2.134,0.405
2.136,0.335
2.138,0.19
2.14,0.18
2.142,0.035
2.144,0.21
2.146,0.275
2.148,0.385
2.15,0.385
2.152,0.28
2.154,0.395
2.156,0.37
2.158,0.305
2.16,0.165
2.162,0.175
2.164,0.235
2.166,0.365
2.168,0.36
2.17,0.4
2.172,0.48
2.174,0.54
2.176,0.415
2.178,0.26
2.18,0.24
2.182,0.215
2.184,0.265
2.186,0.36
2.188,0.29
2.19,0.34
2.192,0.42
2.194,0.39
2.196,0.29
2.198,0.235
2.2,-0.035
2.202,0.08
2.204,0.115
2.206,0.175
2.208,0.195
2.21,0.275
2.212,0.29
2.214,0.19
2.216,0.15
2.218,0.135
2.22,-0.095
2.222,-0.055
2.224,-0.075
2.226,0.04
2.228,0.125
2.23,0.2
2.232,0.225
2.234,0.17
2.236,0.05
2.238,-0.03
2.24,-0.2
2.242,-0.15
2.244,-0.03
2.246,-0.01
2.248,0.015
2.25,0.17
2.252,0.27
2.254,0.295
2.256,0.11
2.258,0.025
2.26,-0.1
2.262,-0.065
2.264,-0.055
2.266,-0.06
2.268,0.1
2.27,0.175
2.272,0.025
2.274,0.155
2.276,0.06
2.278,-0.02
2.28,-0.115
2.282,-0.1
2.284,-0.035
2.286,0.05
2.288,0.005
2.29,0.21
2.292,0.19
2.294,0.085
2.296,0.01
2.298,-0.01
2.3,-0.155
2.302,-0.035
2.304,-0.1
2.306,-0.02
2.308,-0.06
2.31,0.1
2.312,0.12
2.314,0.14
2.316,0.09
2.318,-0.085
2.32,0.005
2.322,-0.11
2.324,-0.17
2.326,0.02
2.328,0.05
2.33,0.165
2.332,0.155
2.334,-0.03
2.336,-0.045
2.338,-0.02
2.34,-0.145
2.342,-0.025
2.344,0.095
2.346,0.215
2.348,0.06
2.35,0.12
2.352,0.185
2.354,0.05
2.356,0.105
2.358,-0.015
2.36,-0.1
2.362,-0.085
2.364,-0.05
2.366,-0.065
2.368,0.11
2.37,0.205
2.372,0.09
2.374,0.235
2.376,0.085
2.378,0.07
2.38,0.03
2.382,-0.135
2.384,-0.21
2.386,-0.165
2.388,0.02
2.39,0.29
2.392,0.285
2.394,0.08
2.396,0.145
2.398,-0.04
2.4,-0.085
2.402,-0.105
2.404,-0.06
2.406,0.105
2.408,0.155
2.41,0.1
2.412,0.1
2.414,0.06
2.416,-0.005
2.418,0.01
2.42,-0.025
2.422,-0.035
2.424,0.105
2.426,0.005
2.428,0.14
2.43,0.16
2.432,0.165
2.434,0.015
2.436,-0.015
2.438,-0.09
2.44,0.01
2.442,-0.02
2.444,-0.05
2.446,0.08
2.448,0.135
2.45,0.065
2.452,0.09
2.454,0.055
2.456,-0.005
2.458,-0.085
2.46,-0.07
2.462,-0.02
2.464,0.1
2.466,0.015
2.468,0.16
2.47,0.205
2.472,0.18
2.474,0.11
2.476,-0.055
2.478,-0.075
2.48,-0.135
2.482,-0.125
2.484,0.105
2.486,0.175
2.488,0.19
2.49,0.19
2.492,0.16
2.494,-0.1
2.496,-0.085
2.498,-0.165
2.5,-0.165
2.502,0.03
2.504,0.025
2.506,0.13
2.508,0.075
2.51,0.13
2.512,0.125
2.514,0.02
2.516,0.05
2.518,-0.14
2.52,-0.015
2.522,-0.045
2.524,-0.14
2.526,-0.01
2.528,0.18
2.53,0.17
2.532,0.04
2.534,0.065
2.536,0.03
2.538,-0.075
2.54,-0.1
2.542,-0.065
2.544,-0.075
2.546,0.015
2.548,0.245
2.55,0.275
2.552,0.265
2.554,0.15
2.556,0.02
2.558,0.005
2.56,-0.07
2.562,0.005
2.564,0.125
2.566,0
2.568,0.205
2.57,0.405
2.572,0.295
2.574,0.22
2.576,0.07
2.578,-0.105
2.58,0.02
2.582,0.05
2.584,0.195
2.586,0.11
2.588,0.175
2.59,0.195
2.592,0.185
2.594,0.08
2.596,0.01
2.598,-0.11
2.6,-0.135
2.602,-0.005
2.604,0.125
2.606,0.105
2.608,0.22
2.61,0.2
2.612,0.095
2.614,0.05
2.616,0.07
2.618,-0.18
2.62,-0.25
2.622,-0.135
2.624,-0.08
2.626,-0.08
2.628,0.16
2.63,0.02
2.632,0.125
2.634,0.05
2.636,0.07
2.638,-0.16
2.64,-0.135
2.642,0.015
2.644,0.155
2.646,0.115
2.648,0.135
2.65,0.19
2.652,0.05
2.654,-0.03
2.656,-0.075
2.658,-0.205
2.66,-0.125
2.662,-0.055
2.664,0.075
2.666,0.115
2.668,0.19
2.67,0.185
2.672,0.095
2.674,-0.025
2.676,-0.19
2.678,-0.215
2.68,-0.145
2.682,-0.06
2.684,0.02
2.686,0.15
2.688,0.315
2.69,0.225
2.692,0.11
2.694,0.07
2.696,-0.235
2.698,-0.26
2.7,-0.205
2.702,-0.16
2.704,0.005
2.706,0.13
2.708,0.275
2.71,0.195
2.712,0.155
2.714,-0.01
2.716,-0.135
2.718,-0.095
2.72,-0.085
2.722,-0.005
2.724,0.28
2.726,0.235
2.728,0.385
2.73,0.59
2.732,0.595
2.734,0.735
2.736,0.6
2.738,0.695
2.74,0.76
2.742,0.64
2.744,0.655
2.746,0.65
2.748,0.655
2.75,0.62
2.752,0.46
2.754,0.32
2.756,0.205
2.758,-0.005
2.76,-0.185
2.762,-0.16
2.764,-0.075
2.766,0.04
2.768,0.145
2.77,0.225
2.772,0.085
2.774,-0.05
2.776,-0.075
2.778,-0.165
2.78,-0.155
2.782,-0.05
2.784,0.125
2.786,0.09
2.788,0.165
2.79,0.06
2.792,-0.025
2.794,-0.065
2.796,-0.195
2.798,-0.12
2.8,-0.045
2.802,0.055
2.804,0.135
2.806,0.13
2.808,0.07
2.81,0.07
2.812,-0.065
2.814,0.025
2.816,-0.03
2.818,-0.06
2.82,-0.05
2.822,-0.045
2.824,0.08
2.826,0.14
2.828,0.165
2.83,0.14
2.832,0.12
2.834,-0.02
2.836,-0.13
2.838,-0.02
2.84,-0.08
2.842,0.025
2.844,0.05
2.846,0.195
2.848,0.235
2.85,0.145
2.852,0.195
2.854,0.09
2.856,-0.075
2.858,-0.03
2.86,-0.045
2.862,-0.055
2.864,0.035
2.866,0.185
2.868,0.21
2.87,0.09
2.872,0.025
2.874,0.045
2.876,-0.12
2.878,-0.215
2.88,-0.01
2.882,0.065
2.884,0.08
2.886,0.245
2.888,0.185
2.89,0.125
2.892,0.08
2.894,-0.035
2.896,-0.115
2.898,-0.1
2.9,-0.01
2.902,0.04
2.904,0.1
2.906,0.29
2.908,0.22
2.91,0.255
2.912,0.17
2.914,0.14
2.916,-0.015
2.918,0.19
2.92,0.035
2.922,0.035
2.924,0.2
2.926,0.3
2.928,0.34
2.93,0.24
2.932,0.16
2.934,0.115
2.936,0.03
2.938,0.015
2.94,0.1
2.942,0.215
2.944,0.245
2.946,0.285
2.948,0.35
2.95,0.32
2.952,0.225
2.954,0.165
2.956,0.11
2.958,0.24
2.96,0.245
2.962,0.4
2.964,0.33
2.966,0.38
2.968,0.47
2.97,0.435
2.972,0.37
2.974,0.26
2.976,0.165
2.978,0.325
2.98,0.255
2.982,0.23
2.984,0.39
2.986,0.43
2.988,0.43
2.99,0.39
2.992,0.28
2.994,0.275
2.996,0.29
2.998,0.16
3,0.2
3.002,0.31
3.004,0.21
3.006,0.32
3.008,0.375
3.01,0.285
3.012,0.225
3.014,0.135
3.016,0.02
3.018,0.03
3.02,0.12
3.022,0.22
3.024,0.195
3.026,0.305
3.028,0.16
3.03,0.105
3.032,-0.065
3.034,-0.105
3.036,0.02
3.038,-0.025
3.04,0.03
3.042,0.145
3.044,0.215
3.046,0.235
3.048,0.175
3.05,0.185
3.052,0.06
3.054,-0.075
3.056,-0.12
3.058,-0.145
3.06,0.015
3.062,0.06
3.064,0.11
3.066,0.275
3.068,0.215
3.07,0.055
3.072,0.05
3.074,-0.005
3.076,-0.125
3.078,-0.115
3.08,0.08
3.082,-0.025
3.084,0.04
3.086,0.17
3.088,0.195
3.09,0.025
3.092,-0.01
3.094,0
3.096,0
3.098,0.06
3.1,0.005
3.102,0.025
3.104,0.225
3.106,0.21
3.108,0.135
3.11,0.035
3.112,-0.055
3.114,-0.075
3.116,0.025
3.118,-0.145
3.12,-0.05
3.122,-0.02
3.124,0.095
3.126,0.19
3.128,0.255
3.13,0.115
3.132,-0.01
3.134,-0.08
3.136,-0.065
3.138,-0.13
3.14,-0.005
3.142,0.03
3.144,0.145
3.146,0.085
3.148,0.07
3.15,0.1
3.152,0.06
3.154,-0.075
3.156,-0.09
3.158,0.015
3.16,0.075
3.162,0.06
3.164,0.235
3.166,0.16
3.168,0.22
3.17,0.09
3.172,0.04
3.174,-0.05
3.176,-0.07
3.178,-0.075
3.18,-0.065
3.182,0.12
3.184,0.23
3.186,0.24
3.188,0.16
3.19,0.04
3.192,0.015
3.194,-0.055
3.196,-0.165
3.198,-0.05
3.2,0.11
3.202,0.07
3.204,0.275
3.206,0.17
3.208,0.06
3.21,0.125
3.212,0.005
3.214,-0.08
3.216,-0.115
3.218,-0.05
3.22,0.08
3.222,0.155
3.224,0.13
3.226,0.305
3.228,0.15
3.23,-0.085
3.232,0.07
3.234,-0.175
3.236,-0.025
3.238,0.03
3.24,0.075
3.242,0.095
3.244,0.19
3.246,0.185
3.248,0.17
3.25,0.085
3.252,-0.02
3.254,0.01
3.256,0.05
3.258,-0.05
3.26,-0.04
3.262,0.075
3.264,0.28
3.266,0.11
3.268,0.13
3.27,0.08
3.272,0.105
3.274,-0.135
3.276,-0.11
3.278,-0.06
3.28,-0.045
3.282,0.205
3.284,0.24
3.286,0.225
3.288,0.13
3.29,0.025
3.292,-0.045
3.294,0.005
3.296,-0.13
3.298,0.045
3.3,-0.01
3.302,0.185
3.304,0.17
3.306,0.235
3.308,0.22
3.31,-0.055
3.312,0.005
3.314,-0.175
3.316,-0.18
3.318,-0.06
3.32,0.045
3.322,0.155
3.324,0.205
3.326,0.18
3.328,0.115
3.33,0.115
3.332,-0.06
3.334,-0.01
3.336,0
3.338,-0.04
3.34,0.015
3.342,0.115
3.344,0.23
3.346,0.13
3.348,0.165
3.35,0.155
3.352,-0.015
3.354,-0.155
3.356,-0.1
3.358,0.02
3.36,-0.025
3.362,0.12
3.364,0.18
3.366,0.215
3.368,0.125
3.37,0.005
3.372,-0.11
3.374,0.03
3.376,0.015
3.378,0.045
3.38,0.175
3.382,0.3
3.384,0.33
3.386,0.34
3.388,0.27
3.39,0.17
3.392,0.025
3.394,0.08
3.396,0.08
3.398,0.105
3.4,0.155
3.402,0.175
3.404,0.215
3.406,0.24
3.408,0.055
3.41,0.025
3.412,0.055
3.414,0.125
3.416,0.165
3.418,-0.025
3.42,0.085
3.422,0.25
3.424,0.16
3.426,0.22
3.428,0.085
3.43,-0.03
3.432,-0.2
3.434,-0.08
3.436,-0.055
3.438,-0.055
3.44,0.105
3.442,0.035
3.444,0.125
3.446,0.155
3.448,-0.07
3.45,0.09
3.452,-0.115
3.454,-0.035
3.456,-0.105
3.458,-0.055
3.46,0.035
3.462,0.175
3.464,0.225
3.466,0.13
3.468,0.09
3.47,0.08
3.472,-0.07
3.474,-0.085
3.476,-0.005
3.478,0.005
3.48,0.075
3.482,0.125
3.484,0.165
3.486,0.095
3.488,-0.01
3.49,0.015
3.492,-0.175
3.494,-0.11
3.496,-0.12
3.498,0.085
3.5,0.085
3.502,0.21
3.504,0.085
3.506,0.09
3.508,-0.1
3.51,-0.03
3.512,-0.2
3.514,-0.165
3.516,-0.04
3.518,0.045
3.52,0.1
3.522,0.015
3.524,0.175
3.526,0.18
3.528,0.18
3.53,0.185
3.532,0.055
3.534,-0.2
3.536,-0.03
3.538,0.04
3.54,0.165
3.542,0.25
3.544,0.36
3.546,0.455
3.548,0.41
3.55,0.49
3.552,0.605
3.554,0.725
3.556,0.795
3.558,1.015
3.56,0.75
3.562,0.88
3.564,0.745
3.566,0.68
3.568,0.66
3.57,0.47
3.572,0.325
3.574,0.31
3.576,0.185
3.578,0.09
3.58,-0.05
3.582,0
3.584,0.015
3.586,0.08
3.588,-0.05
3.59,-0.03
3.592,-0.11
3.594,-0.115
3.596,-0.12
3.598,-0.015
3.6,0.025
3.602,0.065
3.604,0.125
3.606,-0.035
3.608,-0.07
3.61,0.04
3.612,-0.025
3.614,-0.06
3.616,-0.075
3.618,0.01
3.62,0.115
3.622,0.045
3.624,0.235
3.626,0.17
3.628,-0.035
3.63,-0.01
3.632,-0.08
3.634,0.01
3.636,-0.03
3.638,0.1
3.64,0.12
3.642,0.09
3.644,0.16
3.646,0.135
3.648,0.03
3.65,-0.03
3.652,-0.11
3.654,-0.13
3.656,-0.075
3.658,0.14
3.66,0.145
3.662,0.27
3.664,0.24
3.666,0.15
3.668,0.055
3.67,-0.095
3.672,-0.14
3.674,-0.05
3.676,-0.11
3.678,-0.055
3.68,0.065
3.682,0.155
3.684,0.2
3.686,0.03
3.688,-0.03
3.69,-0.12
3.692,-0.06
3.694,-0.01
3.696,-0.14
3.698,0.01
3.7,0.155
3.702,0.14
3.704,0.145
3.706,0.115
3.708,0.19
3.71,0.05
3.712,-0.08
3.714,0.065
3.716,0.075
3.718,0.08
3.72,0.2
3.722,0.24
3.724,0.275
3.726,0.14
3.728,0.085
3.73,0.005
3.732,0.025
3.734,0.055
3.736,0.085
3.738,0.175
3.74,0.33
3.742,0.25
3.744,0.245
3.746,0.165
3.748,0.125
3.75,0.05
3.752,0.035
3.754,0.13
3.756,0.13
3.758,0.125
3.76,0.275
3.762,0.295
3.764,0.235
3.766,0.305
3.768,0.275
3.77,0.035
3.772,0.02
3.774,0.08
3.776,0.2
3.778,0.26
3.78,0.36
3.782,0.43
3.784,0.385
3.786,0.32
3.788,0.305
3.79,0.23
3.792,0.125
3.794,0.185
3.796,0.385
3.798,0.385
3.8,0.56
3.802,0.505
3.804,0.4
3.806,0.38
3.808,0.28
3.81,0.185
3.812,0.285
3.814,0.335
3.816,0.35
3.818,0.325
3.82,0.44
3.822,0.37
3.824,0.365
3.826,0.255
3.828,0.17
3.83,0.015
3.832,0.09
3.834,0.02
3.836,0.145
3.838,0.14
3.84,0.16
3.842,0.21
3.844,0.205
3.846,0.155
3.848,0.065
3.85,-0.165
3.852,-0.155
3.854,0.005
3.856,0.065
3.858,0.025
3.86,0.215
3.862,0.06
3.864,0.11
3.866,0.005
3.868,-0.055
3.87,-0.12
3.872,-0.075
3.874,-0.06
3.876,0.085
3.878,0.155
3.88,0.28
3.882,0.27
3.884,0.165
3.886,0.15
3.888,-0.02
3.89,-0.18
3.892,-0.095
3.894,-0.015
3.896,0.085
3.898,0.145
3.9,0.275
3.902,0.215
3.904,0.2
3.906,0.255
3.908,-0.09
3.91,-0.06
3.912,-0.055
3.914,-0.125
3.916,0.015
3.918,0.08
3.92,0.11
3.922,0.1
3.924,0.115
3.926,0.06
3.928,-0.03
3.93,-0.09
3.932,-0.1
3.934,-0.015
3.936,0.06
3.938,0.05
3.94,0.02
3.942,0.035
3.944,0.115
3.946,-0.005
3.948,-0.04
3.95,-0.095
3.952,-0.15
3.954,0.005
3.956,0.05
3.958,0.175
3.96,0.2
3.962,0.095
3.964,-0.04
3.966,-0.025
3.968,-0.045
3.97,-0.025
3.972,-0.11
3.974,0.01
3.976,0.085
3.978,0.105
3.98,0.255
3.982,0.245
3.984,0.07
3.986,0.055
3.988,-0.055
3.99,0.02
3.992,0.03
3.994,0.07
3.996,0.03
3.998,0.095
4,0.145
4.002,0.12
4.004,0
4.006,-0.005
4.008,-0.21
4.01,-0.05
4.012,-0.04
4.014,-0.03
4.016,0.115
4.018,0.19
4.02,0.075
4.022,0.105
4.024,0.12
4.026,-0.01
4.028,-0.12
4.03,-0.115
4.032,-0.045
4.034,-0.035
4.036,0.04
4.038,0.185
4.04,0.19
4.042,0.13
4.044,0.05
4.046,0.065
4.048,-0.09
4.05,-0.03
4.052,-0.005
4.054,0.105
4.056,0.035
4.058,0.195
4.06,0.205
4.062,0.195
4.064,0.045
4.066,0.035
4.068,-0.13
4.07,-0.05
4.072,-0.005
4.074,0
4.076,0.03
4.078,0.24
4.08,0.07
4.082,0.1
4.084,0.02
4.086,0.05
4.088,0
4.09,-0.16
4.092,-0.01
4.094,-0.025
4.096,0.055
4.098,0.22
4.1,0.275
4.102,0.145
4.104,-0.005
4.106,-0.1
4.108,-0.025
4.11,-0.085
4.112,-0.195
4.114,0.03
4.116,0.025
4.118,0.24
4.12,0.19
4.122,0.06
4.124,0.06
4.126,0
4.128,0.02
4.13,-0.135
4.132,-0.02
4.134,0.065
4.136,0.04
4.138,0.105
4.14,0.185
4.142,0.055
4.144,0.015
4.146,0.075
4.148,-0.1
4.15,-0.125
4.152,-0.025
4.154,0.11
4.156,0.055
4.158,0.12
4.16,0.195
4.162,0.075
4.164,0.04
4.166,-0.1
4.168,-0.045
4.17,-0.005
4.172,-0.09
4.174,0.005
4.176,0.03
4.178,0.21
4.18,0.23
4.182,0.06
4.184,0.03
4.186,0.08
4.188,-0.025
4.19,-0.165
4.192,-0.13
4.194,0
4.196,-0.04
4.198,0.175
4.2,0.115
4.202,0.13
4.204,0.12
4.206,0.01
4.208,-0.175
4.21,-0.14
4.212,-0.035
4.214,0.07
4.216,0.1
4.218,0.13
4.22,0.035
4.222,0.12
4.224,0
4.226,-0.045
4.228,0.025
4.23,0.035
4.232,0.015
4.234,0.07
4.236,0.195
4.238,0.11
4.24,0.295
4.242,0.025
4.244,-0.09
4.246,-0.21
4.248,-0.02
4.25,-0.135
4.252,-0.12
4.254,0.03
4.256,0.085
4.258,0.175
4.26,0.125
4.262,0.055
4.264,-0.06
4.266,-0.13
4.268,-0.185
4.27,-0.155
4.272,0.025
4.274,0.115
4.276,0.25
4.278,0.09
4.28,0.05
4.282,0.19
4.284,0.07
4.286,-0.065
4.288,-0.04
4.29,-0.135
4.292,-0.06
4.294,0.06
4.296,0.105
4.298,0.165
4.3,0.105
4.302,0.02
4.304,-0.02
4.306,-0.17
4.308,-0.15
4.31,-0.065
4.312,0.06
4.314,0.095
4.316,0.16
4.318,0.17
4.32,0.19
4.322,-0.045
4.324,0.065
4.326,-0.07
4.328,-0.075
4.33,-0.045
4.332,0.025
4.334,0.125
4.336,0.205
4.338,0.145
4.34,0.185
4.342,0.08
4.344,0.14
4.346,-0.03
4.348,-0.005
4.35,0.035
4.352,0.145
4.354,0.125
4.356,0.3
4.358,0.3
4.36,0.21
4.362,0.22
4.364,0.18
4.366,-0.03
4.368,-0.135
4.37,-0.01
4.372,0.07
4.374,0.165
4.376,0.265
4.378,0.215
4.38,0.16
4.382,-0.025
4.384,0.1
4.386,-0.04
4.388,-0.05
4.39,-0.005
4.392,0.135
4.394,-0.05
4.396,0.165
4.398,0.265
4.4,0.18
4.402,-0.045
4.404,0.04
4.406,-0.07
4.408,-0.065
4.41,-0.135
4.412,0.035
4.414,0.03
4.416,0.005
4.418,0.11
4.42,0.11
4.422,0.02
4.424,-0.06
4.426,-0.095
4.428,-0.2
4.43,-0.055
4.432,0.025
4.434,0.11
4.436,0.21
4.438,0.18
4.44,0.21
4.442,-0.005
4.444,-0.055
4.446,-0.24
4.448,-0.125
4.45,0.01
4.452,-0.01
4.454,-0.05
4.456,0.035
4.458,0.15
4.46,0.08
4.462,0.055
4.464,-0.035
4.466,-0.08
4.468,-0.06
4.47,-0.035
4.472,0.025
4.474,0.01
4.476,0.11
4.478,0.1
4.48,0.035
4.482,0.05
4.484,0.03
4.486,-0.05
4.488,-0.035
4.49,0.01
4.492,-0.015
4.494,0.1
4.496,0.255
4.498,0.39
4.5,0.24
4.502,0.2
4.504,0.14
4.506,0.285
4.508,0.42
4.51,0.59
4.512,0.755
4.514,0.91
4.516,1
4.518,0.925
4.52,0.84
4.522,0.645
4.524,0.545
4.526,0.39
4.528,0.44
4.53,0.38
4.532,0.27
4.534,0.295
4.536,0.19
4.538,-0.005
4.54,0.05
4.542,-0.125
4.544,-0.065
4.546,-0.105
4.548,-0.14
4.55,-0.05
4.552,0.05
4.554,0.125
4.556,0.225
4.558,0.115
4.56,-0.005
4.562,0.03
4.564,-0.18
4.566,-0.11
4.568,-0.03
4.57,-0.03
4.572,0.1
4.574,0.155
4.576,0.11
4.578,0.1
4.58,0.015
4.582,0.075
4.584,-0.03
4.586,-0.095
4.588,-0.235
4.59,0.005
4.592,0.13
4.594,0.15
4.596,0.18
4.598,0.02
4.6,0.045
4.602,0
4.604,-0.09
4.606,-0.12
4.608,-0.075
4.61,0.045
4.612,0.025
4.614,0.145
4.616,0.045
4.618,0.14
4.62,0.09
4.622,0.03
4.624,-0.04
4.626,-0.09
4.628,-0.11
4.63,0.04
4.632,0.115
4.634,0.15
4.636,0.155
4.638,0.075
4.64,0.04
4.642,-0.005
4.644,-0.155
4.646,-0.105
4.648,-0.04
4.65,0.075
4.652,0.1
4.654,0.235
4.656,0.175
4.658,0.215
4.66,0.155
4.662,0.075
4.664,-0.17
4.666,-0.04
4.668,-0.145
4.67,-0.09
4.672,0.19
4.674,0.25
4.676,-0.01
4.678,0.155
4.68,0.075
4.682,0.06
4.684,-0.1
4.686,0.03
4.688,0
4.69,0.07
4.692,0.16
4.694,0.305
4.696,0.275
4.698,0.21
4.7,0.115
4.702,0.105
4.704,0.055
4.706,0.025
4.708,0.02
4.71,0.16
4.712,0.24
4.714,0.3
4.716,0.31
4.718,0.315
4.72,0.14
4.722,0.025
4.724,-0.005
4.726,0.08
4.728,0.17
4.73,0.24
4.732,0.295
4.734,0.45
4.736,0.47
4.738,0.38
4.74,0.345
4.742,0.27
4.744,0.27
4.746,0.2
4.748,0.215
4.75,0.2
4.752,0.33
4.754,0.395
4.756,0.535
4.758,0.485
4.76,0.385
4.762,0.3
4.764,0.085
4.766,0.075
4.768,0.21
4.77,0.26
4.772,0.335
4.774,0.48
4.776,0.455
4.778,0.36
4.78,0.15
4.782,0.155
4.784,0.16
4.786,0.055
4.788,0.155
4.79,0.15
4.792,0.2
4.794,0.3
4.796,0.255
4.798,0.165
4.8,0.11
4.802,0.065
4.804,0
4.806,-0.005
4.808,0.02
4.81,0.02
4.812,0.16
4.814,0.26
4.816,0.175
4.818,0.03
4.82,0.04
4.822,0.015
4.824,0.035
4.826,0.07
4.828,0.1
4.83,0.08
4.832,0.035
4.834,0.19
4.836,0.225
4.838,0.145
4.84,0.055
4.842,0.025
4.844,-0.135
4.846,-0.08
4.848,0.04
4.85,0.05
4.852,0.105
4.854,0.12
4.856,0.11
4.858,0.14
4.86,-0.01
4.862,0.055
4.864,-0.07
4.866,-0.045
4.868,-0.155
4.87,0.015
4.872,0.055
4.874,0.05
4.876,0.19
4.878,0.095
4.88,-0.17
4.882,-0.215
4.884,-0.085
4.886,-0.085
4.888,0.005
4.89,0.025
4.892,0.12
4.894,0.145
4.896,0.11
4.898,0.01
4.9,-0.04
4.902,-0.065
4.904,-0.085
4.906,-0.085
4.908,0.13
4.91,0.15
4.912,0.215
4.914,0.265
4.916,0.28
4.918,0.085
4.92,0.045
4.922,-0.025
4.924,-0.025
4.926,-0.025
4.928,0.035
4.93,0.09
4.932,0.08
4.934,0.165
4.936,0.02
4.938,0.06
4.94,-0.02
4.942,-0.04
4.944,-0.025
4.946,-0.2
4.948,0.035
4.95,0.105
4.952,0.215
4.954,0.08
4.956,0.155
4.958,0.15
4.96,-0.015
4.962,-0.125
4.964,-0.2
4.966,-0.14
4.968,0.025
4.97,0.05
4.972,0.17
4.974,0.145
4.976,0.165
4.978,0.135
4.98,0.14
4.982,-0.105
4.984,-0.105
4.986,-0.105
4.988,-0.06
4.99,0.035
4.992,0.19
4.994,0.125
4.996,0.175
4.998,0.105
5,0.165
5.002,0.01
5.004,-0.055
5.006,-0.015
5.008,0.12
5.01,0.07
5.012,0.17
5.014,0.3
5.016,0.18
5.018,0.14
5.02,-0.035
5.022,-0.175
5.024,-0.125
5.026,0.015
5.028,0.02
5.03,0.06
5.032,0.265
5.034,0.33
5.036,0.175
5.038,0.105
5.04,-0.1
5.042,-0.035
5.044,-0.16
5.046,-0.05
5.048,0.065
5.05,-0.03
5.052,0.05
5.054,0.245
5.056,0.17
5.058,0.02
5.06,-0.025
5.062,-0.165
5.064,-0.14
5.066,-0.06
5.068,-0.03
5.07,0.075
5.072,0.28
5.074,0.18
5.076,0.075
5.078,0.025
5.08,-0.015
5.082,-0.065
5.084,-0.135
5.086,-0.04
5.088,-0.015
5.09,0.165
5.092,0.26
5.094,0.155
5.096,0.255
5.098,0.055
5.1,0.06
5.102,-0.12
5.104,-0.115
5.106,0.05
5.108,0.115
5.11,0.085
5.112,0.11
5.114,0.065
5.116,0.01
5.118,0.135
5.12,0.005
5.122,-0.08
5.124,0.005
5.126,0.075
5.128,0.07
5.13,0.095
5.132,0.16
5.134,0.16
5.136,0
5.138,0.035
5.14,0.03
5.142,-0.185
5.144,-0.095
5.146,-0.02
5.148,0.025
5.15,0.055
5.152,0.065
5.154,0.085
5.156,0.09
5.158,0.045
5.16,-0.085
5.162,-0.12
5.164,-0.115
5.166,0.01
5.168,0.1
5.17,0.13
5.172,0.24
5.174,0.155
5.176,0.155
5.178,0.15
5.18,-0.145
5.182,-0.23
5.184,-0.065
5.186,0.075
5.188,0.005
5.19,0.145
5.192,0.205
5.194,0.22
5.196,0.095
5.198,0.08
5.2,-0.09
5.202,-0.055
5.204,-0.11
5.206,0.05
5.208,0.075
5.21,0.08
5.212,0.205
5.214,0.175
5.216,0.1
5.218,0.055
5.22,-0.085
5.222,-0.09
5.224,-0.11
5.226,-0.03
5.228,0.06
5.23,0.225
5.232,0.175
5.234,-0.025
5.236,0.1
5.238,-0.04
5.24,-0.205
5.242,-0.24
5.244,-0.08
5.246,-0.02
5.248,-0.01
5.25,0.16
5.252,0.2
5.254,0.14
5.256,0.05
5.258,-0.02
5.26,-0.11
5.262,-0.04
5.264,0.005
5.266,0
5.268,0.165
5.27,0.08
5.272,0.17
5.274,0.18
5.276,0.13
5.278,0.04
5.28,-0.145
5.282,-0.055
5.284,-0.06
5.286,-0.05
5.288,0.065
5.29,0.275
5.292,0.175
5.294,0.125
5.296,0.135
5.298,-0.015
5.3,-0.03
5.302,0.05
5.304,0.005
5.306,-0.055
5.308,0.105
5.31,0.29
5.312,0.15
5.314,0.11
5.316,-0.015
5.318,0
5.32,-0.125
5.322,-0.14
5.324,-0.045
5.326,-0.015
5.328,0.035
5.33,0.17
5.332,0.165
5.334,0.015
5.336,0.005
5.338,-0.125
5.34,-0.11
5.342,-0.055
5.344,-0.09
5.346,-0.025
5.348,0.01
5.35,0.125
5.352,0.155
5.354,0.14
5.356,0.095
5.358,0.04
5.36,0
5.362,-0.02
5.364,-0.03
5.366,0.1
5.368,0.17
5.37,0.21
5.372,0.265
5.374,0.24
5.376,0.08
5.378,0.06
5.38,0.085
5.382,0.03
5.384,0.115
5.386,0.235
5.388,0.18
5.39,0.27
5.392,0.295
5.394,0.26
5.396,0.1
5.398,0.1
5.4,0.055
5.402,0.1
5.404,0.065
5.406,0.075
5.408,0.15
5.41,0.27
5.412,0.195
5.414,0.105
5.416,0.08
5.418,0.03
5.42,-0.13
5.422,-0.07
5.424,-0.03
5.426,0.025
5.428,0.075
5.43,0.13
5.432,0.15
5.434,-0.015
5.436,0.08
5.438,-0.18
5.44,-0.185
5.442,-0.065
5.444,-0.015
5.446,0.13
5.448,0.235
5.45,0.185
5.452,0.165
5.454,0.085
5.456,-0.01
5.458,-0.16
5.46,-0.105
5.462,0.02
5.464,0.04
5.466,0.055
5.468,-0.055
5.47,0.095
5.472,0.14
5.474,0.08
5.476,0.13
5.478,0.02
5.48,-0.075
5.482,-0.07
5.484,-0.045
5.486,0.01
5.488,0.11
5.49,0.095
5.492,0.115
5.494,0.035
5.496,0.02
5.498,-0.115
5.5,-0.14
5.502,-0.14
5.504,-0.04
5.506,0.02
5.508,-0.01
5.51,0.13
5.512,0.185
5.514,0.125
5.516,-0.025
5.518,-0.08
5.52,-0.04
5.522,-0.03
5.524,0.07
5.526,0.225
5.528,0.28
5.53,0.21
5.532,0.315
5.534,0.24
5.536,0.2
5.538,0.235
5.54,0.43
5.542,0.545
5.544,0.69
5.546,0.81
5.548,1.03
5.55,1.08
5.552,0.825
5.554,0.74
5.556,0.635
5.558,0.345
5.56,0.52
5.562,0.39
5.564,0.375
5.566,0.35
5.568,0.235
5.57,0.17
5.572,0.095
5.574,-0.035
5.576,-0.06
5.578,-0.095
5.58,-0.115
5.582,-0.095
5.584,-0.045
5.586,-0.005
5.588,0.135
5.59,0.09
5.592,-0.005
5.594,-0.015
5.596,0.02
5.598,-0.25
5.6,-0.09
5.602,-0.075
5.604,-0.075
5.606,0.045
5.608,0.175
5.61,0.14
5.612,0.185
5.614,0.1
5.616,0.1
5.618,0.015
5.62,-0.14
5.622,-0.055
5.624,0.035
5.626,0.05
5.628,0.25
5.63,0.165
5.632,0.165
5.634,0.06
5.636,0.02
5.638,-0.08
5.64,-0.035
5.642,-0.125
5.644,0.085
5.646,0.125
5.648,0.135
5.65,0.13
5.652,0.13
5.654,0.055
5.656,-0.05
5.658,-0.1
5.66,-0.12
5.662,-0.095
5.664,0.075
5.666,0.115
5.668,0.175
5.67,0.25
5.672,0.1
5.674,0.06
5.676,-0.015
5.678,-0.115
5.68,-0.125
5.682,-0.06
5.684,0.015
5.686,0.065
5.688,0.2
5.69,0.18
5.692,0.07
5.694,0.04
5.696,0.04
5.698,0
5.7,0.03
5.702,0.05
5.704,0.06
5.706,0.095
5.708,0.31
5.71,0.21
5.712,0.19
5.714,0.02
5.716,0.095
5.718,-0.055
5.72,-0.005
5.722,0.025
5.724,0.115
5.726,0.285
5.728,0.175
5.73,0.25
5.732,0.135
5.734,0.225
5.736,0.055
5.738,0.05
5.74,0.14
5.742,0.145
5.744,0.195
5.746,0.195
5.748,0.335
5.75,0.32
5.752,0.37
5.754,0.29
5.756,0.075
5.758,-0.02
5.76,0.07
5.762,0.155
5.764,0.2
5.766,0.305
5.768,0.42
5.77,0.435
5.772,0.37
5.774,0.2
5.776,0.14
5.778,0.13
5.78,0.13
5.782,0.29
5.784,0.34
5.786,0.48
5.788,0.455
5.79,0.405
5.792,0.42
5.794,0.35
5.796,0.23
5.798,0.205
5.8,0.23
5.802,0.33
5.804,0.405
5.806,0.5
5.808,0.485
5.81,0.325
5.812,0.33
5.814,0.285
5.816,0.165
5.818,0.115
5.82,0.085
5.822,0.185
5.824,0.14
5.826,0.27
5.828,0.31
5.83,0.36
5.832,0.195
5.834,0.095
5.836,0.045
5.838,0.025
5.84,-0.055
5.842,0.065
5.844,0.105
5.846,0.25
5.848,0.26
5.85,0.195
5.852,0.15
5.854,-0.005
5.856,-0.085
5.858,-0.18
5.86,-0.115
5.862,-0.03
5.864,0.02
5.866,0.135
5.868,0.08
5.87,0.135
5.872,0.075
5.874,0.075
5.876,-0.015
5.878,-0.025
5.88,-0.005
5.882,0.08
5.884,0.105
5.886,0.185
5.888,0.245
5.89,0.15
5.892,0.02
5.894,0.035
5.896,-0.07
5.898,-0.095
5.9,-0.065
5.902,0.055
5.904,0.125
5.906,0.16
5.908,0.19
5.91,0.185
5.912,0.02
5.914,0.075
5.916,-0.205
5.918,-0.145
5.92,-0.005
5.922,0.03
5.924,0.065
5.926,0.255
5.928,0.22
5.93,0.115
5.932,-0.005
5.934,-0.09
5.936,-0.17
5.938,-0.18
5.94,-0.025
5.942,0
5.944,0.055
5.946,0.13
5.948,0.105
5.95,0.075
5.952,-0.025
5.954,0.05
5.956,-0.185
5.958,-0.16
5.96,-0.02
5.962,0.045
5.964,0.05
5.966,0.275
5.968,0.325
5.97,0.255
5.972,0.05
5.974,-0.035
5.976,-0.175
5.978,-0.07
5.98,0.055
5.982,0.035
5.984,0.07
5.986,0.235
5.988,0.145
5.99,0.105
5.992,0.06
5.994,0.04
5.996,-0.005
5.998,-0.045
6,-0.04
6.002,0.04
6.004,0.075
6.006,0.135
6.008,0.185
6.01,0.11
6.012,0.065
6.014,0.01
6.016,-0.11
6.018,-0.07
6.02,-0.005
6.022,0.06
6.024,0.195
6.026,0.275
6.028,0.12
6.03,0.08
6.032,-0.085
6.034,0.01
6.036,0
6.038,-0.115
6.04,-0.025
6.042,0.135
6.044,0.18
6.046,0.14
6.048,0.16
6.05,0.12
6.052,-0.085
6.054,-0.01
6.056,-0.12
6.058,-0.005
6.06,-0.035
6.062,0.14
6.064,0.065
6.066,0.155
6.068,0.125
6.07,0.195
6.072,0.085
6.074,-0.045
6.076,-0.1
6.078,0.01
6.08,0.025
6.082,0.05
6.084,0.105
6.086,0.21
6.088,0.15
6.09,0.06
6.092,0.015
6.094,-0.04
6.096,-0.15
6.098,-0.01
6.1,0.045
6.102,0.125
6.104,0.23
6.106,0.32
6.108,0.12
6.11,0.13
6.112,0.015
6.114,-0.155
6.116,-0.235
6.118,-0.1
6.12,0.05
6.122,0.105
6.124,0.095
6.126,0.07
6.128,0.065
6.13,0.095
6.132,0
6.134,0.045
6.136,-0.09
6.138,-0.065
6.14,0.08
6.142,0.135
6.144,0.155
6.146,0.1
6.148,0.105
6.15,-0.005
6.152,0.035
6.154,-0.12
6.156,-0.195
6.158,-0.105
6.16,0.01
6.162,0.15
6.164,0.29
6.166,0.225
6.168,0.09
6.17,0.095
6.172,-0.12
6.174,0.04
6.176,-0.075
6.178,0
6.18,0.075
6.182,0.275
6.184,0.205
6.186,0.15
6.188,0.07
6.19,0.05
6.192,0.04
6.194,-0.085
6.196,-0.06
6.198,-0.045
6.2,-0.02
6.202,0.05
6.204,0.15
6.206,0.13
6.208,0.165
6.21,0.02
6.212,-0.09
6.214,-0.175
6.216,-0.055
6.218,0.045
6.22,0.01
6.222,0.07
6.224,0.1
6.226,0.055
6.228,0.16
6.23,0.145
6.232,-0.025
6.234,-0.205
6.236,-0.01
6.238,0.01
6.24,0.03
6.242,0.075
6.244,0.295
6.246,0.14
6.248,0.195
6.25,-0.005
6.252,0
6.254,-0.13
6.256,-0.095
6.258,-0.03
6.26,0.085
6.262,0.165
6.264,0.305
6.266,0.2
6.268,-0.03
6.27,-0.05
6.272,-0.005
6.274,-0.1
6.276,-0.025
6.278,-0.03
6.28,0.08
6.282,0.185
6.284,0.255
6.286,0.2
6.288,0.06
6.29,-0.045
6.292,-0.025
6.294,-0.15
6.296,-0.13
6.298,-0.09
6.3,0.03
6.302,0.01
6.304,0.185
6.306,0.195
6.308,-0.015
6.31,0.02
6.312,0.07
6.314,-0.01
6.316,-0.135
6.318,-0.07
6.32,-0.005
6.322,0.135
6.324,0.19
6.326,0.095
6.328,0.105
6.33,0.035
6.332,-0.045
6.334,-0.065
6.336,-0.08
6.338,-0.105
6.34,0.055
6.342,0.15
6.344,0.24
6.346,0.315
6.348,0.205
6.35,0.095
6.352,0.065
6.354,-0.17
6.356,-0.08
6.358,-0.14
6.36,0.06
6.362,0.2
6.364,0.3
6.366,0.18
6.368,-0.005
6.37,0.04
6.372,0.055
6.374,0.045
6.376,-0.07
6.378,-0.075
6.38,0.105
6.382,0.165
6.384,0.26
6.386,0.275
6.388,0.205
6.39,0.145
6.392,0.035
6.394,0.03
6.396,0.04
6.398,0.145
6.4,0.125
6.402,0.195
6.404,0.21
6.406,0.21
6.408,0.15
6.41,0.09
6.412,0.005
6.414,-0.025
6.416,-0.045
6.418,0.07
6.42,0.035
6.422,0.205
6.424,0.195
6.426,0.12
6.428,0.18
6.43,-0.005
6.432,-0.195
6.434,-0.145
6.436,-0.17
6.438,-0.01
6.44,0.015
6.442,0.185
6.444,0.255
6.446,0.075
6.448,0.09
6.45,0.045
6.452,0
6.454,-0.065
6.456,-0.085
6.458,0.06
6.46,0.1
6.462,0.09
6.464,0.095
6.466,0.02
6.468,-0.075
6.47,0.04
6.472,-0.15
6.474,-0.165
6.476,-0.03
6.478,0.06
6.48,0.035
6.482,0.2
6.484,0.15
6.486,0.1
6.488,-0.035
6.49,-0.035
6.492,-0.135
6.494,-0.035
6.496,-0.06
6.498,0.065
6.5,0.05
6.502,0.175
6.504,0.13
6.506,0.22
6.508,0.02
6.51,-0.065
6.512,-0.115
6.514,-0.125
6.516,-0.075
6.518,-0.01
6.52,0.03
6.522,0.195
6.524,0.245
6.526,0.01
6.528,0.125
6.53,0.125
6.532,-0.045
6.534,-0.015
6.536,0.11
6.538,0.26
6.54,0.48
6.542,0.685
6.544,0.865
6.546,0.855
6.548,0.885
6.55,0.925
6.552,0.65
6.554,0.495
6.556,0.42
6.558,0.49
6.56,0.55
6.562,0.615
6.564,0.495
6.566,0.375
6.568,0.085
6.57,-0.075
6.572,-0.24
6.574,-0.21
6.576,-0.145
6.578,-0.09
6.58,0.06
6.582,0.21
6.584,0.165
6.586,0.06
6.588,0.095
6.59,-0.01
6.592,-0.165
6.594,-0.1
6.596,-0.08
6.598,-0.015
6.6,0.045
6.602,0.11
6.604,0.17
6.606,0.055
6.608,0.1
6.61,-0.035
6.612,-0.11
6.614,-0.045
6.616,0.01
6.618,-0.045
6.62,0.04
6.622,0.155
6.624,0.12
6.626,0.05
6.628,-0.01
6.63,0
6.632,-0.1
6.634,-0.2
6.636,0.02
6.638,0.085
6.64,0.095
6.642,0.115
6.644,0.12
6.646,-0.045
6.648,-0.1
6.65,-0.115
6.652,-0.125
6.654,-0.045
6.656,-0.015
6.658,0.115
6.66,0.15
6.662,0.095
6.664,0.22
6.666,0.085
6.668,0.075
6.67,0.055
6.672,-0.03
6.674,-0.085
6.676,-0.085
6.678,0.09
6.68,0.175
6.682,0.26
6.684,0.215
6.686,0.14
6.688,0.105
6.69,-0.015
6.692,-0.125
6.694,-0.155
6.696,-0.02
6.698,0.005
6.7,0.275
6.702,0.19
6.704,0.2
6.706,0.065
6.708,0.075
6.71,0.01
6.712,-0.035
6.714,-0.03
6.716,0.06
6.718,0.135
6.72,0.185
6.722,0.27
6.724,0.255
6.726,0.12
6.728,-0.03
6.73,-0.135
6.732,-0.035
6.734,0.02
6.736,0.06
6.738,0.085
6.74,0.355
6.742,0.3
6.744,0.22
6.746,0.33
6.748,0.23
6.75,0.095
6.752,0.12
6.754,0.08
6.756,0.18
6.758,0.235
6.76,0.435
6.762,0.405
6.764,0.41
6.766,0.37
6.768,0.325
6.77,0.17
6.772,0.14
6.774,0.14
6.776,0.19
6.778,0.37
6.78,0.455
6.782,0.36
6.784,0.485
6.786,0.44
6.788,0.315
6.79,0.22
6.792,0.21
6.794,0.255
6.796,0.28
6.798,0.36
6.8,0.41
6.802,0.53
6.804,0.4
6.806,0.215
6.808,0.15
6.81,-0.025
6.812,0.15
6.814,0.08
6.816,0.08
6.818,0.325
6.82,0.36
6.822,0.265
6.824,0.195
6.826,0.24
6.828,0.24
6.83,0.09
6.832,0.155
6.834,0.185
6.836,0.155
6.838,0.155
6.84,0.285
6.842,0.305
6.844,0.21
6.846,0.085
6.848,0.07
6.85,-0.04
6.852,-0.11
6.854,-0.08
6.856,0.02
6.858,0.04
6.86,0.22
6.862,0.175
6.864,0.1
6.866,0.16
6.868,-0.06
6.87,-0.155
6.872,-0.08
6.874,-0.04
6.876,-0.015
6.878,0.045
6.88,0.125
6.882,0.24
6.884,0.145
6.886,-0.15
6.888,-0.06
6.89,-0.16
6.892,-0.14
6.894,-0.06
6.896,0.1
6.898,0.025
6.9,0.175
6.902,0.14
6.904,0.14
6.906,0.03
6.908,0.04
6.91,-0.065
6.912,-0.145
6.914,0.02
6.916,0.195
6.918,0.12
6.92,0.235
6.922,0.205
6.924,0.11
6.926,0.01
6.928,-0.145
6.93,-0.12
6.932,-0.145
6.934,-0.045
6.936,0.04
6.938,0.05
6.94,0.14
6.942,0.205
6.944,0.2
6.946,0.07
6.948,-0.01
6.95,-0.045
6.952,-0.05
6.954,-0.16
6.956,-0.06
6.958,-0.055
6.96,0.1
6.962,0.16
6.964,0.195
6.966,0.065
6.968,-0.025
6.97,-0.08
6.972,-0.185
6.974,-0.07
6.976,-0.035
6.978,-0.015
6.98,0.115
6.982,0.115
6.984,0.03
6.986,-0.1
6.988,-0.035
6.99,-0.095
6.992,-0.005
6.994,0.135
6.996,0.115
6.998,0.125
7,0.215
7.002,0.175
7.004,0.085
7.006,0.055
7.008,-0.03
7.01,-0.07
7.012,-0.04
7.014,-0.035
7.016,0.19
7.018,0.125
7.02,0.115
7.022,0.235
7.024,-0.03
7.026,-0.005
7.028,-0.055
7.03,-0.055
7.032,0.005
7.034,-0.045
7.036,0.085
7.038,0.165
7.04,0.2
7.042,0.155
7.044,0.045
7.046,0.065
7.048,-0.135
7.05,-0.075
7.052,-0.095
7.054,0.01
7.056,0.025
7.058,0.19
7.06,0.13
7.062,0.085
7.064,0.035
7.066,0.01
7.068,-0.135
7.07,-0.08
7.072,-0.04
7.074,0.205
7.076,-0.02
7.078,0.06
7.08,0.07
7.082,0.17
7.084,0.045
7.086,-0.005
7.088,-0.03
7.09,-0.12
7.092,-0.07
7.094,0.03
7.096,0.06
7.098,0.23
7.1,0.31
7.102,0.12
7.104,-0.02
7.106,0.025
7.108,-0.105
7.11,-0.085
7.112,0.005
7.114,0.005
7.116,-0.01
7.118,0.205
7.12,0.15
7.122,0.15
7.124,0.025
7.126,-0.025
7.128,-0.125
7.13,-0.16
7.132,-0.03
7.134,-0.005
7.136,0.035
7.138,0.265
7.14,0.075
7.142,0.045
7.144,0.035
7.146,-0.085
7.148,-0.22
7.15,-0.19
7.152,0.025
7.154,0.2
7.156,0.19
7.158,0.185
7.16,0.18
7.162,0.28
7.164,0.125
7.166,-0.03
7.168,-0.15
7.17,-0.175
7.172,-0.025
7.174,-0.1
7.176,-0.01
7.178,0.195
7.18,0.175
7.182,0.18
7.184,0.04
7.186,0.065
7.188,-0.06
7.19,-0.04
7.192,-0.05
7.194,0.065
7.196,0.1
7.198,0.15
7.2,0.115
7.202,0.125
7.204,-0.005
7.206,-0.165
7.208,-0.11
7.21,-0.095
7.212,-0.21
7.214,0.045
7.216,0.01
7.218,0.16
7.22,0.19
7.222,0.085
7.224,-0.085
7.226,0
7.228,-0.045
7.23,-0.09
7.232,-0.085
7.234,0.03
7.236,0.025
7.238,0.095
7.24,0.09
7.242,0.005
7.244,-0.055
7.246,0.07
7.248,-0.015
7.25,-0.025
7.252,-0.08
7.254,0.005
7.256,0.135
7.258,0.13
7.26,0.225
7.262,0.035
7.264,-0.01
7.266,-0.035
7.268,-0.02
7.27,-0.03
7.272,-0.055
7.274,0.075
7.276,0.01
7.278,0.145
7.28,0.225
7.282,0.135
7.284,0.035
7.286,-0.035
7.288,-0.015
7.29,-0.05
7.292,0.03
7.294,0.145
7.296,0.28
7.298,0.315
7.3,0.19
7.302,0.165
7.304,0.155
7.306,0.075
7.308,0.035
7.31,0.06
7.312,0.215
7.314,0.185
7.316,0.18
7.318,0.23
7.32,0.1
7.322,0.135
7.324,0.03
7.326,0.005
7.328,-0.05
7.33,-0.13
7.332,-0.09
7.334,0.1
7.336,0.165
7.338,0.16
7.34,0.13
7.342,-0.015
7.344,0.045
7.346,-0.03
7.348,-0.09
7.35,-0.065
7.352,-0.025
7.354,0.16
7.356,0.145
7.358,0.085
7.36,0.085
7.362,0.005
7.364,-0.015
7.366,-0.1
7.368,-0.205
7.37,-0.03
7.372,0.025
7.374,0.02
7.376,0.265
7.378,0.17
7.38,0.075
7.382,0.075
7.384,-0.005
7.386,-0.09
7.388,-0.08
7.39,-0.115
7.392,-0.015
7.394,0.07
7.396,0.055
7.398,0.095
7.4,0.205
7.402,-0.065
7.404,-0.07
7.406,-0.275
7.408,-0.03
7.41,-0.09
7.412,-0.06
7.414,0.1
7.416,0.21
7.418,0.295
7.42,0.085
7.422,-0.01
7.424,-0.13
7.426,-0.185
7.428,-0.16
7.43,0.005
7.432,0.085
7.434,0.04
7.436,0.115
7.438,0.125
7.44,0.24
7.442,0.065
7.444,0.11
7.446,-0.125
7.448,-0.155
7.45,0.02
7.452,0.065
7.454,0.105
7.456,0.35
7.458,0.535
7.46,0.505
7.462,0.575
7.464,0.695
7.466,0.705
7.468,0.795
7.47,0.755
7.472,0.765
7.474,0.81
7.476,0.745
7.478,0.72
7.48,0.52
7.482,0.485
7.484,0.45
7.486,0.22
7.488,0.04
7.49,-0.155
7.492,-0.17
7.494,-0.035
7.496,0.17
7.498,0.14
7.5,0.085
7.502,0.005
7.504,-0.06
7.506,-0.155
7.508,-0.15
7.51,-0.18
7.512,-0.08
7.514,0.06
7.516,0.095
7.518,0.195
7.52,0.105
7.522,-0.07
7.524,-0.025
7.526,-0.17
7.528,-0.145
7.53,-0.15
7.532,-0.055
7.534,0.175
7.536,0.15
7.538,0.11
7.54,0.11
7.542,0.025
7.544,-0.02
7.546,-0.145
7.548,-0.075
7.55,0.055
7.552,0.125
7.554,-0.045
7.556,0.15
7.558,0.105
7.56,0.085
7.562,0.05
7.564,0
7.566,-0.095
7.568,-0.085
7.57,-0.005
7.572,0.09
7.574,0.155
7.576,0.2
7.578,0.175
7.58,0.085
7.582,0.025
7.584,-0.075
7.586,-0.095
7.588,-0.075
7.59,-0.085
7.592,-0.04
7.594,0.05
7.596,0.15
7.598,0.23
7.6,0.115
7.602,-0.01
7.604,-0.08
7.606,-0.055
7.608,-0.05
7.61,0.01
7.612,-0.005
7.614,0.08
7.616,0.17
7.618,0.24
7.62,-0.005
7.622,0.04
7.624,-0.01
7.626,-0.055
7.628,-0.035
7.63,0
7.632,0.075
7.634,0.2
7.636,0.125
7.638,0.21
7.64,0.14
7.642,0.07
7.644,0.03
7.646,-0.06
7.648,0.06
7.65,0.095
7.652,0.215
7.654,0.26
7.656,0.28
7.658,0.285
7.66,0.13
7.662,0.095
7.664,0.08
7.666,0.115
7.668,0.055
7.67,0.02
7.672,0.18
7.674,0.375
7.676,0.4
7.678,0.445
7.68,0.4
7.682,0.185
7.684,0.18
7.686,0.06
7.688,0.14
7.69,0.23
7.692,0.21
7.694,0.41
7.696,0.41
7.698,0.365
7.7,0.36
7.702,0.405
7.704,0.25
7.706,0.25
7.708,0.29
7.71,0.305
7.712,0.34
7.714,0.445
7.716,0.43
7.718,0.415
7.72,0.34
7.722,0.17
7.724,0.08
7.726,0.195
7.728,0.315
7.73,0.235
7.732,0.245
7.734,0.415
7.736,0.31
7.738,0.27
7.74,0.28
7.742,0.115
7.744,-0.015
7.746,-0.02
7.748,-0.045
7.75,0.08
7.752,0.15
7.754,0.34
7.756,0.33
7.758,0.25
7.76,0.23
7.762,0.12
7.764,-0.06
7.766,-0.075
7.768,-0.085
7.77,0.155
7.772,0.1
7.774,0.235
7.776,0.25
7.778,0.115
7.78,0.07
7.782,0.035
7.784,-0.01
7.786,-0.02
7.788,0.02
7.79,0.03
7.792,0.07
7.794,0.21
7.796,0.145
7.798,0.065
7.8,0
7.802,0.055
7.804,-0.115
7.806,-0.065
7.808,0.015
7.81,0.05
7.812,-0.005
7.814,0.11
7.816,0.27
7.818,0.02
7.82,0.015
7.822,-0.01
7.824,-0.115
7.826,-0.135
7.828,0.02
7.83,0.06
7.832,0.005
7.834,0.1
7.836,0.02
7.838,0.04
7.84,0.14
7.842,0.035
7.844,-0.19
7.846,-0.175
7.848,-0.085
7.85,-0.005
7.852,0.05
7.854,0.22
7.856,0.12
7.858,0.14
7.86,0.015
7.862,-0.06
7.864,-0.155
7.866,-0.025
7.868,0.095
7.87,0.125
7.872,0.17
7.874,0.13
7.876,0.11
7.878,0.06
7.88,0.065
7.882,-0.05
7.884,-0.085
7.886,-0.13
7.888,-0.005
7.89,0.07
7.892,0.18
7.894,0.23
7.896,0.13
7.898,0.04
7.9,0.005
7.902,-0.06
7.904,-0.085
7.906,-0.06
7.908,0.045
7.91,0.005
7.912,0.14
7.914,0.28
7.916,0.2
7.918,-0.02
7.92,-0.045
7.922,-0.12
7.924,-0.165
7.926,-0.13
7.928,-0.045
7.93,0.08
7.932,0.185
7.934,0.2
7.936,0.165
7.938,0.1
7.94,-0.075
7.942,-0.225
7.944,0.045
7.946,0.05
7.948,-0.07
7.95,-0.015
7.952,0.13
7.954,0.155
7.956,0.17
7.958,0.01
7.96,0.065
7.962,-0.085
7.964,0.005
7.966,-0.015
7.968,0.1
7.97,0.04
7.972,0.145
7.974,0.21
7.976,0.16
7.978,0.065
7.98,0.115
7.982,-0.09
7.984,-0.075
7.986,-0.07
7.988,0.06
7.99,0.085
7.992,0.185
7.994,0.165
7.996,0.185
7.998,0.12
8,-0.025
8.002,-0.095
8.004,-0.06
8.006,-0.14
8.008,0
8.01,0.115
8.012,0.185
8.014,0.17
8.016,0.085
8.018,0.02
8.02,0.045
8.022,-0.095
8.024,-0.14
8.026,-0.045
8.028,0.105
8.03,0.045
8.032,0.13
8.034,0.12
8.036,0.045
8.038,0.055
8.04,-0.055
8.042,-0.05
8.044,-0.085
8.046,-0.08
8.048,-0.035
8.05,-0.055
8.052,0.11
8.054,0.185
8.056,0.105
8.058,-0.04
8.06,-0.02
8.062,-0.17
8.064,-0.035
8.066,-0.03
8.068,0.045
8.07,0.205
8.072,0.23
8.074,0.255
8.076,0.095
8.078,-0.01
8.08,0.015
8.082,-0.04
8.084,-0.07
8.086,-0.02
8.088,-0.035
8.09,0.035
8.092,0.205
8.094,0.24
8.096,0.035
8.098,0.015
8.1,-0.045
8.102,-0.1
8.104,-0.035
8.106,-0.06
8.108,0.005
8.11,0.07
8.112,0.155
8.114,0.075
8.116,0.06
8.118,0.15
8.12,0.015
8.122,-0.18
8.124,-0.22
8.126,-0.185
8.128,0.075
8.13,0.06
8.132,0.17
8.134,0.21
8.136,0.075
8.138,0.16
8.14,0.035
8.142,-0.105
8.144,-0.05
8.146,0.045
8.148,-0.025
8.15,0.125
8.152,0.195
8.154,0.185
8.156,0.075
8.158,0.015
8.16,-0.015
8.162,-0.105
8.164,-0.075
8.166,-0.175
8.168,0.14
8.17,0.14
8.172,0.16
8.174,0.21
8.176,0.14
8.178,0.16
8.18,0.085
8.182,0
8.184,0.135
8.186,0.145
8.188,0.215
8.19,0.215
8.192,0.28
8.194,0.32
8.196,0.16
8.198,0.095
8.2,0.055
8.202,-0.07
8.204,-0.08
8.206,-0.045
8.208,0.18
8.21,0.17
8.212,0.255
8.214,0.215
8.216,0.09
8.218,0.1
8.22,0
8.222,-0.06
8.224,-0.12
8.226,0.02
8.228,0.085
8.23,0.19
8.232,0.195
8.234,0.135
8.236,0.06
8.238,-0.065
8.24,-0.06
8.242,-0.12
8.244,-0.14
8.246,-0.075
8.248,0.005
8.25,0.135
8.252,0.075
8.254,0.12
8.256,0.015
8.258,-0.045
8.26,-0.15
8.262,-0.105
8.264,-0.115
8.266,0.04
8.268,0.07
8.27,0.11
8.272,0.055
8.274,0.11
8.276,0.095
8.278,-0.005
8.28,-0.055
8.282,-0.085
8.284,-0.065
8.286,0.015
8.288,0.095
8.29,0.09
8.292,0.13
8.294,0.18
8.296,-0.005
8.298,0.005
8.3,-0.055
8.302,-0.01
8.304,-0.035
8.306,-0.065
8.308,-0.035
8.31,0.045
8.312,0.035
8.314,0.045
8.316,0.01
8.318,0.04
8.32,-0.04
8.322,-0.045
8.324,0.095
8.326,0.02
8.328,-0.02
8.33,0.16
8.332,0.23
8.334,0.08
8.336,0.15
8.338,0.17
8.34,0.195
8.342,0.345
8.344,0.46
8.346,0.595
8.348,0.77
8.35,0.975
8.352,0.95
8.354,0.995
8.356,0.805
8.358,0.77
8.36,0.545
8.362,0.395
8.364,0.51
8.366,0.38
8.368,0.35
8.37,0.395
8.372,0.16
8.374,-0.05
8.376,-0.06
8.378,-0.1
8.38,-0.08
8.382,-0.19
8.384,-0.07
8.386,0.05
8.388,0.01
8.39,0.115
8.392,0.17
8.394,0.115
8.396,0.145
8.398,-0.035
8.4,-0.215
8.402,0.005
8.404,-0.06
8.406,-0.02
8.408,0.115
8.41,0.105
8.412,0.16
8.414,0.135
8.416,-0.06
8.418,0.055
8.42,-0.065
8.422,-0.155
8.424,-0.1
8.426,0.045
8.428,0.03
8.43,0.155
8.432,0.06
8.434,0.18
8.436,0.05
8.438,-0.015
8.44,-0.085
8.442,-0.125
8.444,0.005
8.446,0.055
8.448,0.18
8.45,0.205
8.452,0.145
8.454,0.05
8.456,0.03
8.458,-0.02
8.46,-0.04
8.462,-0.24
8.464,-0.075
8.466,0.045
8.468,0.09
8.47,0.145
8.472,0.21
8.474,0.11
8.476,0.055
8.478,-0.02
8.48,-0.105
8.482,-0.195
8.484,-0.05
8.486,0.13
8.488,0.155
8.49,0.15
8.492,0.185
8.494,0.105
8.496,0.055
8.498,0.09
8.5,-0.04
8.502,0.005
8.504,0.07
8.506,0.055
8.508,0.195
8.51,0.3
8.512,0.27
8.514,0.155
8.516,0.055
8.518,-0.07
8.52,-0.045
8.522,0.035
8.524,-0.005
8.526,0.155
8.528,0.225
8.53,0.245
8.532,0.32
8.534,0.215
8.536,0.08
8.538,0.01
8.54,-0.09
8.542,0.01
8.544,0.05
8.546,0.15
8.548,0.255
8.55,0.325
8.552,0.305
8.554,0.23
8.556,0.235
8.558,0.155
8.56,0.07
8.562,0.225
8.564,0.215
8.566,0.215
8.568,0.355
8.57,0.395
8.572,0.325
8.574,0.36
8.576,0.335
8.578,0.24
8.58,0.115
8.582,0.215
8.584,0.295
8.586,0.365
8.588,0.49
8.59,0.58
8.592,0.525
8.594,0.335
8.596,0.445
8.598,0.185
8.6,0.13
8.602,0.15
8.604,0.265
8.606,0.37
8.608,0.47
8.61,0.54
8.612,0.415
8.614,0.35
8.616,0.255
8.618,0.115
8.62,0.065
8.622,0.19
8.624,0.165
8.626,0.16
8.628,0.265
8.63,0.395
8.632,0.215
8.634,0.18
8.636,0.175
8.638,0.025
8.64,-0.02
8.642,0.02
8.644,0.11
8.646,0.135
8.648,0.215
8.65,0.225
8.652,0.16
8.654,0.16
8.656,-0.015
8.658,-0.09
8.66,0.045
8.662,-0.04
8.664,0.095
8.666,0.025
8.668,0.21
8.67,0.245
8.672,0.165
8.674,0.065
8.676,0.01
8.678,-0.06
8.68,0.015
8.682,-0.015
8.684,0.05
8.686,0.005
8.688,0.19
8.69,0.12
8.692,0.23
8.694,0.03
8.696,0.04
8.698,-0.075
8.7,-0.135
8.702,-0.06
8.704,0.05
8.706,0.075
8.708,0.21
8.71,0.265
8.712,0.035
8.714,-0.08
8.716,-0.145
8.718,-0.125
8.72,-0.06
8.722,-0.045
8.724,-0.01
8.726,0.05
8.728,0.28
8.73,0.15
8.732,0.115
8.734,0.12
8.736,0.045
8.738,-0.11
8.74,-0.195
8.742,-0.015
8.744,0.215
8.746,0.06
8.748,0.16
8.75,0.05
8.752,0.045
8.754,0.09
8.756,0.06
8.758,-0.095
8.76,-0.03
8.762,0.025
8.764,0.015
8.766,0.12
8.768,0.115
8.77,0.145
8.772,0.085
8.774,0.055
8.776,0.03
8.778,-0.055
8.78,-0.1
8.782,-0.01
8.784,0.025
8.786,0.165
8.788,0.18
8.79,0.15
8.792,0.045
8.794,0.045
8.796,-0.035
8.798,-0.11
8.8,-0.05
8.802,-0.045
8.804,0.015
8.806,0.19
8.808,0.225
8.81,0.145
8.812,0.14
8.814,0.075
8.816,0.02
8.818,-0.03
8.82,-0.01
8.822,-0.065
8.824,0.06
8.826,0.215
8.828,0.11
8.83,0.07
8.832,0.155
8.834,0.115
8.836,0.065
8.838,-0.045
8.84,0
8.842,0.075
8.844,0.135
8.846,0.135
8.848,0.185
8.85,0.11
8.852,0.095
8.854,0.1
8.856,-0.015
8.858,0.035
8.86,-0.035
8.862,-0.03
8.864,0.085
8.866,0.145
8.868,0.12
8.87,0.095
8.872,0.14
8.874,-0.035
8.876,-0.01
8.878,0.04
8.88,0.02
8.882,0.02
8.884,0.015
8.886,0.075
8.888,0.185
8.89,0.185
8.892,0.08
8.894,-0.03
8.896,-0.12
8.898,-0.12
8.9,-0.055
8.902,0.06
8.904,0.015
8.906,0.125
8.908,0.25
8.91,0.26
8.912,0.135
8.914,-0.01
8.916,-0.06
8.918,-0.09
8.92,-0.035
8.922,0.01
8.924,0.11
8.926,0.14
8.928,0.175
8.93,0.095
8.932,0.14
8.934,0.025
8.936,-0.09
8.938,-0.015
8.94,-0.015
8.942,0.045
8.944,0.105
8.946,0.23
8.948,0.175
8.95,0.17
8.952,0.135
8.954,0
8.956,-0.085
8.958,-0.045
8.96,-0.09
8.962,-0.005
8.964,0.085
8.966,0.185
8.968,0.12
8.97,0.115
8.972,0.075
8.974,0.03
8.976,-0.075
8.978,0.025
8.98,-0.06
8.982,-0.005
8.984,0.09
8.986,0.145
8.988,0.11
8.99,0.18
8.992,-0.02
8.994,-0.04
8.996,-0.08
8.998,-0.095
9,-0.06
9.002,0.005
9.004,0.095
9.006,0.185
9.008,0.255
9.01,0.185
9.012,0.09
9.014,-0.07
9.016,-0.01
9.018,-0.085
9.02,-0.035
9.022,-0.02
9.024,0.16
9.026,0.25
9.028,0.225
9.03,0.105
9.032,0.125
9.034,0.11
9.036,0
9.038,0.015
9.04,-0.03
9.042,0.205
9.044,0.27
9.046,0.345
9.048,0.245
9.05,0.23
9.052,0.11
9.054,0.095
9.056,0.085
9.058,0.065
9.06,0.04
9.062,0.075
9.064,0.14
9.066,0.235
9.068,0.25
9.07,0.31
9.072,0.215
9.074,0.075
9.076,-0.015
9.078,-0.1
9.08,0.07
9.082,0.025
9.084,0.12
9.086,0.225
9.088,0.185
9.09,0.105
9.092,-0.075
9.094,-0.13
9.096,-0.115
9.098,-0.14
9.1,-0.005
9.102,-0.02
9.104,0.095
9.106,0.22
9.108,0.195
9.11,0.085
9.112,-0.025
9.114,-0.115
9.116,-0.05
9.118,-0.15
9.12,0.01
9.122,0.14
9.124,0.11
9.126,0.18
9.128,0.15
9.13,0.065
9.132,-0.06
9.134,-0.03
9.136,-0.01
9.138,-0.15
9.14,-0.055
9.142,0.075
9.144,0.015
9.146,0.04
9.148,0.12
9.15,0.09
9.152,0.005
9.154,-0.025
9.156,-0.035
9.158,-0.02
9.16,-0.07
9.162,0.03
9.164,0.165
9.166,0.24
9.168,0.16
9.17,0.035
9.172,0.005
9.174,-0.175
9.176,-0.12
9.178,-0.105
9.18,0.065
9.182,0.16
9.184,0.29
9.186,0.325
9.188,0.285
9.19,0.07
9.192,-0.095
9.194,-0.07
9.196,-0.015
9.198,0.075
9.2,0.165
9.202,0.34
9.204,0.575
9.206,0.755
9.208,0.765
9.21,0.735
9.212,0.785
9.214,0.51
9.216,0.575
9.218,0.57
9.22,0.425
9.222,0.5
9.224,0.43
9.226,0.525
9.228,0.49
9.23,0.065
9.232,-0.155
9.234,-0.36
9.236,-0.22
9.238,-0.085
9.24,-0.025
9.242,0.02
9.244,0.15
9.246,0.205
9.248,0.175
9.25,0.05
9.252,0.055
9.254,-0.095
9.256,-0.165
9.258,-0.08
9.26,0.095
9.262,0.11
9.264,0.115
9.266,0.09
9.268,0.2
9.27,0.1
9.272,-0.065
9.274,-0.09
9.276,-0.12
9.278,0.05
9.28,0.005
9.282,0.04
9.284,0.105
9.286,0.2
9.288,0.125
9.29,0.045
9.292,-0.005
9.294,-0.295
9.296,-0.26
9.298,-0.135
9.3,0.11
9.302,0.03
9.304,0.29
9.306,0.25
9.308,0.245
9.31,0.18
9.312,0.11
9.314,-0.195
9.316,-0.075
9.318,0.015
9.32,0
9.322,-0.01
9.324,0.215
9.326,0.31
9.328,0.09
9.33,-0.035
9.332,0.065
9.334,-0.095
9.336,-0.1
9.338,-0.075
9.34,0.075
9.342,0.295
9.344,0.185
9.346,0.155
9.348,0.175
9.35,0.1
9.352,0.05
9.354,-0.11
9.356,-0.06
9.358,0.105
9.36,0.075
9.362,0.125
9.364,0.235
9.366,0.3
9.368,0.215
9.37,0.105
9.372,0.105
9.374,-0.005
9.376,-0.085
9.378,0.01
9.38,0.135
9.382,0.225
9.384,0.24
9.386,0.23
9.388,0.16
9.39,0.12
9.392,-0.075
9.394,-0.05
9.396,0.055
9.398,0.1
9.4,0.16
9.402,0.25
9.404,0.36
9.406,0.29
9.408,0.245
9.41,0.3
9.412,0.25
9.414,0.015
9.416,0.15
9.418,0.225
9.42,0.29
9.422,0.27
9.424,0.325
9.426,0.465
9.428,0.395
9.43,0.275
9.432,0.285
9.434,0.165
9.436,0.195
9.438,0.29
9.44,0.32
9.442,0.35
9.444,0.525
9.446,0.57
9.448,0.435
9.45,0.37
9.452,0.23
9.454,0.27
9.456,0.31
9.458,0.33
9.46,0.34
9.462,0.485
9.464,0.52
9.466,0.43
9.468,0.37
9.47,0.315
9.472,0.22
9.474,0.125
9.476,0.15
9.478,0.19
9.48,0.265
9.482,0.35
9.484,0.33
9.486,0.415
9.488,0.31
9.49,0.225
9.492,0.115
9.494,0.045
9.496,0.085
9.498,0.08
9.5,-0.015
9.502,0.175
9.504,0.28
9.506,0.2
9.508,0.1
9.51,0.08
9.512,0
9.514,0.08
9.516,-0.005
9.518,0.045
9.52,0.14
9.522,0.175
9.524,0.175
9.526,0.125
9.528,0.11
9.53,0.005
9.532,-0.12
9.534,-0.05
9.536,0.01
9.538,0.025
9.54,0.015
9.542,0.185
9.544,0.22
9.546,0.27
9.548,0.16
9.55,0.09
9.552,-0.12
9.554,-0.165
9.556,-0.085
9.558,0.02
9.56,0.005
9.562,0.18
9.564,0.115
9.566,0.08
9.568,0.06
9.57,-0.035
9.572,-0.06
9.574,-0.045
9.576,0.015
9.578,0.03
9.58,0.13
9.582,0.17
9.584,0.165
9.586,0.2
9.588,0.03
9.59,-0.08
9.592,-0.07
9.594,-0.02
9.596,-0.125
9.598,0.055
9.6,0.045
9.602,0.165
9.604,0.24
9.606,0.19
9.608,0.075
9.61,0.065
9.612,-0.19
9.614,-0.155
9.616,0
9.618,0.215
9.62,0.02
9.622,0.23
9.624,0.17
9.626,0.095
9.628,0.005
9.63,0
9.632,-0.02
9.634,-0.025
9.636,-0.16
9.638,0.025
9.64,-0.025
9.642,0.21
9.644,0.27
9.646,0.185
9.648,0.03
9.65,-0.035
9.652,-0.09
9.654,-0.025
9.656,0
9.658,0.09
9.66,0.045
9.662,0.14
9.664,0.16
9.666,0.085
9.668,0.04
9.67,-0.01
9.672,-0.045
9.674,-0.025
9.676,-0.04
9.678,0.08
9.68,0.17
9.682,0.175
9.684,0.225
9.686,0.155
9.688,0.12
9.69,0.05
9.692,0
9.694,-0.03
9.696,0.055
9.698,0.09
9.7,0.115
9.702,0.225
9.704,0.06
9.706,0.29
9.708,0.09
9.71,0.045
9.712,-0.175
9.714,-0.155
9.716,-0.02
9.718,0.115
9.72,0.135
9.722,0.245
9.724,0.185
9.726,0.085
9.728,-0.1
9.73,-0.115
9.732,-0.06
9.734,-0.11
9.736,0.065
9.738,0.005
9.74,0.07
9.742,0.26
9.744,0.05
9.746,0.135
9.748,0.105
9.75,-0.08
9.752,-0.06
9.754,-0.07
9.756,-0.05
9.758,0.015
9.76,0.19
9.762,0.225
9.764,0.185
9.766,0.11
9.768,-0.02
9.77,-0.04
9.772,-0.05
9.774,-0.03
9.776,0.07
9.778,0.105
9.78,0.28
9.782,0.165
9.784,0.185
9.786,0.145
9.788,-0.015
9.79,-0.195
9.792,0.025
9.794,0.08
9.796,0.11
9.798,0.045
9.8,0.14
9.802,0.205
9.804,0.235
9.806,0.02
9.808,-0.055
9.81,-0.06
9.812,-0.085
9.814,-0.05
9.816,-0.11
9.818,0.08
9.82,0.18
9.822,0.19
9.824,0.135
9.826,0.125
9.828,0.14
9.83,-0.01
9.832,0.085
9.834,-0.025
9.836,0.11
9.838,0.135
9.84,0.34
9.842,0.29
9.844,0.155
9.846,0.11
9.848,-0.045
9.85,-0.11
9.852,-0.005
9.854,0.08
9.856,0.09
9.858,0.215
9.86,0.405
9.862,0.335
9.864,0.285
9.866,0.11
9.868,0.135
9.87,0.055
9.872,-0.005
9.874,-0.045
9.876,0.065
9.878,0.07
9.88,0.27
9.882,0.33
9.884,0.11
9.886,0.06
9.888,0.055
9.89,-0.07
9.892,-0.02
9.894,-0.02
9.896,-0.07
9.898,-0.06
9.9,0.235
9.902,0.11
9.904,-0.03
9.906,0.05
9.908,0.06
9.91,-0.075
9.912,-0.07
9.914,0.06
9.916,0.005
9.918,0.055
9.92,0.145
9.922,0.145
9.924,0.025
9.926,0.02
9.928,-0.005
9.93,-0.1
9.932,-0.18
9.934,-0.175
9.936,-0.12
9.938,0.04
9.94,0.275
9.942,0.225
9.944,0.18
9.946,0.08
9.948,-0.045
9.95,-0.005
9.952,-0.08
9.954,-0.03
9.956,0.03
9.958,0.11
9.96,0.175
9.962,0.165
9.964,0.135
9.966,0.045
9.968,0.04
9.97,-0.105
9.972,-0.175
9.974,-0.06
9.976,0.06
9.978,0.205
9.98,0.205
9.982,0.215
9.984,0.18
9.986,0.02
9.988,0.055
9.99,-0.075
9.992,-0.08
9.994,0.165
9.996,0.18
9.998,0.215
