0,-1.445
0.002,-1.505
0.004,-1.46
0.006,-1.51
0.008,-1.725
0.01,-1.64
0.012,-1.635
0.014,-1.46
0.016,-1.47
0.018,-1.325
0.02,-1.395
0.022,-1.385
0.024,-1.5
0.026,-1.55
0.028,-1.63
0.03,-1.66
0.032,-1.615
0.034,-1.58
0.036,-1.485
0.038,-1.35
0.04,-1.345
0.042,-1.365
0.044,-1.455
0.046,-1.54
0.048,-1.655
0.05,-1.665
0.052,-1.59
0.054,-1.56
0.056,-1.56
0.058,-1.4
0.06,-1.255
0.062,-1.42
0.064,-1.54
0.066,-1.49
0.068,-1.66
0.07,-1.61
0.072,-1.61
0.074,-1.475
0.076,-1.43
0.078,-1.42
0.08,-1.34
0.082,-1.46
0.084,-1.505
0.086,-1.525
0.088,-1.65
0.09,-1.65
0.092,-1.67
0.094,-1.53
0.096,-1.56
0.098,-1.38
0.1,-1.3
0.102,-1.475
0.104,-1.525
0.106,-1.55
0.108,-1.585
0.11,-1.665
0.112,-1.55
0.114,-1.52
0.116,-1.425
0.118,-1.36
0.12,-1.41
0.122,-1.43
0.124,-1.54
0.126,-1.69
0.128,-1.625
0.13,-1.61
0.132,-1.53
0.134,-1.59
0.136,-1.435
0.138,-1.4
0.14,-1.365
0.142,-1.41
0.144,-1.515
0.146,-1.64
0.148,-1.835
0.15,-1.745
0.152,-1.665
0.154,-1.525
0.156,-1.485
0.158,-1.46
0.16,-1.565
0.162,-1.52
0.164,-1.585
0.166,-1.67
0.168,-1.72
0.17,-1.71
0.172,-1.67
0.174,-1.565
0.176,-1.54
0.178,-1.475
0.18,-1.475
0.182,-1.55
0.184,-1.655
0.186,-1.66
0.188,-1.715
0.19,-1.685
0.192,-1.775
0.194,-1.595
0.196,-1.555
0.198,-1.47
0.2,-1.505
0.202,-1.6
0.204,-1.67
0.206,-1.67
0.208,-1.67
0.21,-1.625
0.212,-1.61
0.214,-1.365
0.216,-1.35
0.218,-1.285
0.22,-1.375
0.222,-1.47
0.224,-1.595
0.226,-1.555
0.228,-1.69
0.23,-1.71
0.232,-1.74
0.234,-1.445
0.236,-1.45
0.238,-1.52
0.24,-1.53
0.242,-1.56
0.244,-1.62
0.246,-1.795
0.248,-1.805
0.25,-1.715
0.252,-1.67
0.254,-1.615
0.256,-1.525
0.258,-1.46
0.26,-1.615
0.262,-1.615
0.264,-1.705
0.266,-1.795
0.268,-1.735
0.27,-1.665
0.272,-1.64
0.274,-1.665
0.276,-1.545
0.278,-1.585
0.28,-1.485
0.282,-1.61
0.284,-1.64
0.286,-1.795
0.288,-1.885
0.29,-1.855
0.292,-1.76
0.294,-1.805
0.296,-1.69
0.298,-1.65
0.3,-1.655
0.302,-1.76
0.304,-1.75
0.306,-1.925
0.308,-1.865
0.31,-1.76
0.312,-1.58
0.314,-1.465
0.316,-1.165
0.318,-1.08
0.32,-1.035
0.322,-0.915
0.324,-0.905
0.326,-0.87
0.328,-0.875
0.33,-0.845
0.332,-0.765
0.334,-0.7
0.336,-0.62
0.338,-0.71
0.34,-0.89
0.342,-1.105
0.344,-1.48
0.346,-1.61
0.348,-1.625
0.35,-1.61
0.352,-1.555
0.354,-1.435
0.356,-1.415
0.358,-1.44
0.36,-1.59
0.362,-1.675
0.364,-1.68
0.366,-1.82
0.368,-1.82
0.37,-1.74
0.372,-1.685
0.374,-1.65
0.376,-1.6
0.378,-1.56
0.38,-1.595
0.382,-1.67
0.384,-1.73
0.386,-1.96
0.388,-1.9
0.39,-1.74
0.392,-1.825
0.394,-1.705
0.396,-1.535
0.398,-1.575
0.4,-1.595
0.402,-1.76
0.404,-1.825
0.406,-1.895
0.408,-1.805
0.41,-1.77
0.412,-1.675
0.414,-1.775
0.416,-1.56
0.418,-1.53
0.42,-1.545
0.422,-1.76
0.424,-1.78
0.426,-1.845
0.428,-1.88
0.43,-1.94
0.432,-1.645
0.434,-1.625
0.436,-1.585
0.438,-1.575
0.44,-1.64
0.442,-1.81
0.444,-1.765
0.446,-1.89
0.448,-1.84
0.45,-1.77
0.452,-1.67
0.454,-1.62
0.456,-1.545
0.458,-1.635
0.46,-1.645
0.462,-1.825
0.464,-1.895
0.466,-1.885
0.468,-1.86
0.47,-1.835
0.472,-1.785
0.474,-1.68
0.476,-1.595
0.478,-1.685
0.48,-1.765
0.482,-1.805
0.484,-1.675
0.486,-1.81
0.488,-1.85
0.49,-1.7
0.492,-1.645
0.494,-1.51
0.496,-1.42
0.498,-1.455
0.5,-1.555
0.502,-1.555
0.504,-1.54
0.506,-1.745
0.508,-1.73
0.51,-1.675
0.512,-1.49
0.514,-1.41
0.516,-1.435
0.518,-1.43
0.52,-1.425
0.522,-1.545
0.524,-1.61
0.526,-1.54
0.528,-1.525
0.53,-1.495
0.532,-1.32
0.534,-1.415
0.536,-1.395
0.538,-1.24
0.54,-1.36
0.542,-1.34
0.544,-1.475
0.546,-1.475
0.548,-1.5
0.55,-1.48
0.552,-1.365
0.554,-1.25
0.556,-1.265
0.558,-1.25
0.56,-1.285
0.562,-1.475
0.564,-1.595
0.566,-1.515
0.568,-1.385
0.57,-1.35
0.572,-1.34
0.574,-1.125
0.576,-1.245
0.578,-1.27
0.58,-1.205
0.582,-1.395
0.584,-1.465
0.586,-1.585
0.588,-1.54
0.59,-1.46
0.592,-1.4
0.594,-1.24
0.596,-1.365
0.598,-1.41
0.6,-1.42
0.602,-1.53
0.604,-1.63
0.606,-1.645
0.608,-1.595
0.61,-1.5
0.612,-1.46
0.614,-1.29
0.616,-1.345
0.618,-1.5
0.62,-1.545
0.622,-1.61
0.624,-1.645
0.626,-1.78
0.628,-1.59
0.63,-1.47
0.632,-1.47
0.634,-1.415
0.636,-1.505
0.638,-1.58
0.64,-1.43
0.642,-1.595
0.644,-1.72
0.646,-1.715
0.648,-1.635
0.65,-1.545
0.652,-1.46
0.654,-1.405
0.656,-1.44
0.658,-1.49
0.66,-1.535
0.662,-1.555
0.664,-1.68
0.666,-1.68
0.668,-1.58
0.67,-1.575
0.672,-1.505
0.674,-1.39
0.676,-1.43
0.678,-1.54
0.68,-1.54
0.682,-1.575
0.684,-1.715
0.686,-1.615
0.688,-1.62
0.69,-1.535
0.692,-1.52
0.694,-1.32
0.696,-1.385
0.698,-1.365
0.7,-1.53
0.702,-1.605
0.704,-1.745
0.706,-1.69
0.708,-1.585
0.71,-1.54
0.712,-1.47
0.714,-1.415
0.716,-1.255
0.718,-1.425
0.72,-1.555
0.722,-1.6
0.724,-1.62
0.726,-1.765
0.728,-1.64
0.73,-1.5
0.732,-1.395
0.734,-1.445
0.736,-1.5
0.738,-1.425
0.74,-1.56
0.742,-1.59
0.744,-1.71
0.746,-1.655
0.748,-1.63
0.75,-1.55
0.752,-1.5
0.754,-1.285
0.756,-1.35
0.758,-1.415
0.76,-1.55
0.762,-1.65
0.764,-1.645
0.766,-1.595
0.768,-1.55
0.77,-1.5
0.772,-1.485
0.774,-1.34
0.776,-1.385
0.778,-1.435
0.78,-1.465
0.782,-1.67
0.784,-1.71
0.786,-1.625
0.788,-1.645
0.79,-1.575
0.792,-1.515
0.794,-1.35
0.796,-1.39
0.798,-1.485
0.8,-1.52
0.802,-1.63
0.804,-1.775
0.806,-1.64
0.808,-1.52
0.81,-1.56
0.812,-1.475
0.814,-1.33
0.816,-1.445
0.818,-1.525
0.82,-1.495
0.822,-1.635
0.824,-1.745
0.826,-1.605
0.828,-1.54
0.83,-1.485
0.832,-1.52
0.834,-1.405
0.836,-1.505
0.838,-1.505
0.84,-1.595
0.842,-1.545
0.844,-1.555
0.846,-1.55
0.848,-1.55
0.85,-1.54
0.852,-1.36
0.854,-1.335
0.856,-1.43
0.858,-1.525
0.86,-1.655
0.862,-1.645
0.864,-1.58
0.866,-1.655
0.868,-1.555
0.87,-1.465
0.872,-1.33
0.874,-1.415
0.876,-1.515
0.878,-1.59
0.88,-1.57
0.882,-1.695
0.884,-1.67
0.886,-1.63
0.888,-1.41
0.89,-1.445
0.892,-1.385
0.894,-1.395
0.896,-1.52
0.898,-1.535
0.9,-1.55
0.902,-1.71
0.904,-1.69
0.906,-1.75
0.908,-1.465
0.91,-1.415
0.912,-1.275
0.914,-1.315
0.916,-1.28
0.918,-1.355
0.92,-1.395
0.922,-1.575
0.924,-1.485
0.926,-1.48
0.928,-1.45
0.93,-1.385
0.932,-1.235
0.934,-1.32
0.936,-1.33
0.938,-1.445
0.94,-1.44
0.942,-1.645
0.944,-1.635
0.946,-1.555
0.948,-1.625
0.95,-1.44
0.952,-1.37
0.954,-1.365
0.956,-1.415
0.958,-1.52
0.96,-1.585
0.962,-1.645
0.964,-1.645
0.966,-1.615
0.968,-1.555
0.97,-1.645
0.972,-1.42
0.974,-1.33
0.976,-1.42
0.978,-1.51
0.98,-1.54
0.982,-1.615
0.984,-1.68
0.986,-1.66
0.988,-1.62
0.99,-1.555
0.992,-1.405
0.994,-1.385
0.996,-1.455
0.998,-1.67
1,-1.615
1.002,-1.83
1.004,-1.81
1.006,-1.685
1.008,-1.61
1.01,-1.47
1.012,-1.465
1.014,-1.42
1.016,-1.53
1.018,-1.4
1.02,-1.365
1.022,-1.4
1.024,-1.25
1.026,-1.09
1.028,-0.885
1.03,-0.725
1.032,-0.62
1.034,-0.565
1.036,-0.455
1.038,-0.72
1.04,-0.705
1.042,-0.675
1.044,-0.655
1.046,-0.74
1.048,-0.74
1.05,-1.035
1.052,-1.175
1.054,-1.17
1.056,-1.31
1.058,-1.395
1.06,-1.44
1.062,-1.555
1.064,-1.495
1.066,-1.55
1.068,-1.45
1.07,-1.43
1.072,-1.385
1.074,-1.465
1.076,-1.51
1.078,-1.61
1.08,-1.645
1.082,-1.77
1.084,-1.58
1.086,-1.55
1.088,-1.535
1.09,-1.295
1.092,-1.49
1.094,-1.39
1.096,-1.52
1.098,-1.66
1.1,-1.68
1.102,-1.695
1.104,-1.59
1.106,-1.75
1.108,-1.61
1.11,-1.425
1.112,-1.57
1.114,-1.41
1.116,-1.45
1.118,-1.69
1.12,-1.68
1.122,-1.64
1.124,-1.58
1.126,-1.445
1.128,-1.495
1.13,-1.53
1.132,-1.495
1.134,-1.475
1.136,-1.525
1.138,-1.595
1.14,-1.65
1.142,-1.615
1.144,-1.63
1.146,-1.545
1.148,-1.46
1.15,-1.485
1.152,-1.385
1.154,-1.415
1.156,-1.48
1.158,-1.53
1.16,-1.75
1.162,-1.68
1.164,-1.69
1.166,-1.515
1.168,-1.455
1.17,-1.395
1.172,-1.305
1.174,-1.46
1.176,-1.52
1.178,-1.555
1.18,-1.58
1.182,-1.655
1.184,-1.59
1.186,-1.515
1.188,-1.49
1.19,-1.385
1.192,-1.365
1.194,-1.39
1.196,-1.44
1.198,-1.485
1.2,-1.61
1.202,-1.555
1.204,-1.57
1.206,-1.48
1.208,-1.4
1.21,-1.345
1.212,-1.22
1.214,-1.405
1.216,-1.44
1.218,-1.375
1.22,-1.54
1.222,-1.475
1.224,-1.465
1.226,-1.35
1.228,-1.405
1.23,-1.255
1.232,-1.16
1.234,-1.265
1.236,-1.35
1.238,-1.47
1.24,-1.505
1.242,-1.405
1.244,-1.38
1.246,-1.3
1.248,-1.32
1.25,-1.05
1.252,-1.18
1.254,-1.24
1.256,-1.295
1.258,-1.28
1.26,-1.435
1.262,-1.5
1.264,-1.375
1.266,-1.245
1.268,-1.235
1.27,-1.045
1.272,-1.175
1.274,-1.13
1.276,-1.255
1.278,-1.3
1.28,-1.49
1.282,-1.39
1.284,-1.325
1.286,-1.26
1.288,-1.22
1.29,-1.17
1.292,-1.17
1.294,-1.24
1.296,-1.32
1.298,-1.41
1.3,-1.58
1.302,-1.53
1.304,-1.445
1.306,-1.36
1.308,-1.255
1.31,-1.165
1.312,-1.19
1.314,-1.335
1.316,-1.44
1.318,-1.565
1.32,-1.505
1.322,-1.525
1.324,-1.615
1.326,-1.485
1.328,-1.435
1.33,-1.375
1.332,-1.385
1.334,-1.41
1.336,-1.48
1.338,-1.59
1.34,-1.66
1.342,-1.705
1.344,-1.535
1.346,-1.51
1.348,-1.305
1.35,-1.275
1.352,-1.41
1.354,-1.495
1.356,-1.63
1.358,-1.59
1.36,-1.625
1.362,-1.69
1.364,-1.58
1.366,-1.44
1.368,-1.515
1.37,-1.395
1.372,-1.34
1.374,-1.425
1.376,-1.585
1.378,-1.78
1.38,-1.605
1.382,-1.59
1.384,-1.665
1.386,-1.465
1.388,-1.43
1.39,-1.335
1.392,-1.41
1.394,-1.5
1.396,-1.525
1.398,-1.645
1.4,-1.62
1.402,-1.575
1.404,-1.56
1.406,-1.545
1.408,-1.47
1.41,-1.42
1.412,-1.365
1.414,-1.55
1.416,-1.53
1.418,-1.63
1.42,-1.685
1.422,-1.595
1.424,-1.48
1.426,-1.465
1.428,-1.345
1.43,-1.41
1.432,-1.53
1.434,-1.52
1.436,-1.525
1.438,-1.625
1.44,-1.645
1.442,-1.695
1.444,-1.645
1.446,-1.535
1.448,-1.435
1.45,-1.415
1.452,-1.415
1.454,-1.4
1.456,-1.435
1.458,-1.7
1.46,-1.73
1.462,-1.54
1.464,-1.56
1.466,-1.47
1.468,-1.45
1.47,-1.45
1.472,-1.46
1.474,-1.53
1.476,-1.595
1.478,-1.675
1.48,-1.735
1.482,-1.585
1.484,-1.705
1.486,-1.42
1.488,-1.29
1.49,-1.335
1.492,-1.33
1.494,-1.42
1.496,-1.515
1.498,-1.72
1.5,-1.76
1.502,-1.68
1.504,-1.585
1.506,-1.55
1.508,-1.435
1.51,-1.39
1.512,-1.455
1.514,-1.475
1.516,-1.615
1.518,-1.6
1.52,-1.615
1.522,-1.7
1.524,-1.515
1.526,-1.465
1.528,-1.38
1.53,-1.43
1.532,-1.585
1.534,-1.61
1.536,-1.7
1.538,-1.62
1.54,-1.645
1.542,-1.6
1.544,-1.56
1.546,-1.49
1.548,-1.335
1.55,-1.335
1.552,-1.465
1.554,-1.46
1.556,-1.62
1.558,-1.72
1.56,-1.635
1.562,-1.565
1.564,-1.485
1.566,-1.47
1.568,-1.4
1.57,-1.425
1.572,-1.385
1.574,-1.74
1.576,-1.51
1.578,-1.61
1.58,-1.615
1.582,-1.55
1.584,-1.54
1.586,-1.415
1.588,-1.34
1.59,-1.395
1.592,-1.42
1.594,-1.59
1.596,-1.585
1.598,-1.685
1.6,-1.655
1.602,-1.47
1.604,-1.405
1.606,-1.405
1.608,-1.31
1.61,-1.34
1.612,-1.375
1.614,-1.435
1.616,-1.45
1.618,-1.445
1.62,-1.57
1.622,-1.45
1.624,-1.465
1.626,-1.49
1.628,-1.31
1.63,-1.355
1.632,-1.41
1.634,-1.5
1.636,-1.53
1.638,-1.665
1.64,-1.68
1.642,-1.55
1.644,-1.44
1.646,-1.545
1.648,-1.42
1.65,-1.355
1.652,-1.405
1.654,-1.555
1.656,-1.61
1.658,-1.675
1.66,-1.71
1.662,-1.625
1.664,-1.53
1.666,-1.465
1.668,-1.355
1.67,-1.325
1.672,-1.555
1.674,-1.535
1.676,-1.825
1.678,-1.58
1.68,-1.615
1.682,-1.57
1.684,-1.49
1.686,-1.465
1.688,-1.53
1.69,-1.465
1.692,-1.445
1.694,-1.7
1.696,-1.775
1.698,-1.82
1.7,-1.82
1.702,-1.585
1.704,-1.52
1.706,-1.42
1.708,-1.365
1.71,-1.265
1.712,-1.055
1.714,-1.03
1.716,-1.12
1.718,-1.015
1.72,-0.87
1.722,-0.8
1.724,-0.64
1.726,-0.645
1.728,-0.56
1.73,-0.535
1.732,-0.63
1.734,-0.835
1.736,-0.99
1.738,-1.295
1.74,-1.53
1.742,-1.475
1.744,-1.38
1.746,-1.35
1.748,-1.325
1.75,-1.33
1.752,-1.41
1.754,-1.495
1.756,-1.615
1.758,-1.64
1.76,-1.685
1.762,-1.45
1.764,-1.455
1.766,-1.42
1.768,-1.305
1.77,-1.51
1.772,-1.49
1.774,-1.645
1.776,-1.66
1.778,-1.595
1.78,-1.74
1.782,-1.59
1.784,-1.535
1.786,-1.41
1.788,-1.46
1.79,-1.56
1.792,-1.67
1.794,-1.7
1.796,-1.64
1.798,-1.63
1.8,-1.64
1.802,-1.63
1.804,-1.495
1.806,-1.415
1.808,-1.445
1.81,-1.285
1.812,-1.505
1.814,-1.565
1.816,-1.62
1.818,-1.665
1.82,-1.62
1.822,-1.575
1.824,-1.44
1.826,-1.375
1.828,-1.415
1.83,-1.495
1.832,-1.55
1.834,-1.605
1.836,-1.7
1.838,-1.645
1.84,-1.655
1.842,-1.535
1.844,-1.5
1.846,-1.32
1.848,-1.33
1.85,-1.5
1.852,-1.51
1.854,-1.54
1.856,-1.595
1.858,-1.665
1.86,-1.56
1.862,-1.555
1.864,-1.455
1.866,-1.33
1.868,-1.255
1.87,-1.43
1.872,-1.525
1.874,-1.575
1.876,-1.61
1.878,-1.62
1.88,-1.48
1.882,-1.545
1.884,-1.465
1.886,-1.365
1.888,-1.365
1.89,-1.42
1.892,-1.395
1.894,-1.385
1.896,-1.585
1.898,-1.53
1.9,-1.485
1.902,-1.34
1.904,-1.395
1.906,-1.33
1.908,-1.345
1.91,-1.215
1.912,-1.31
1.914,-1.435
1.916,-1.47
1.918,-1.38
1.92,-1.385
1.922,-1.34
1.924,-1.24
1.926,-1.085
1.928,-1.28
1.93,-1.335
1.932,-1.345
1.934,-1.5
1.936,-1.495
1.938,-1.39
1.94,-1.385
1.942,-1.26
1.944,-1.18
1.946,-0.98
1.948,-1.155
1.95,-1.245
1.952,-1.325
1.954,-1.39
1.956,-1.34
1.958,-1.365
1.96,-1.29
1.962,-1.185
1.964,-1.165
1.966,-1.135
1.968,-1.095
1.97,-1.155
1.972,-1.305
1.974,-1.48
1.976,-1.41
1.978,-1.465
1.98,-1.37
1.982,-1.33
1.984,-1.27
1.986,-1.045
1.988,-1.18
1.99,-1.19
1.992,-1.265
1.994,-1.545
1.996,-1.435
1.998,-1.51
2,-1.53
2.002,-1.385
2.004,-1.26
2.006,-1.275
2.008,-1.395
2.01,-1.5
2.012,-1.5
2.014,-1.725
2.016,-1.6
2.018,-1.715
2.02,-1.5
2.022,-1.485
2.024,-1.37
2.026,-1.3
2.028,-1.325
2.03,-1.51
2.032,-1.585
2.034,-1.695
2.036,-1.73
2.038,-1.72
2.04,-1.6
2.042,-1.445
2.044,-1.41
2.046,-1.415
2.048,-1.44
2.05,-1.435
2.052,-1.54
2.054,-1.69
2.056,-1.71
2.058,-1.645
2.06,-1.575
2.062,-1.43
2.064,-1.32
2.066,-1.385
2.068,-1.47
2.07,-1.64
2.072,-1.67
2.074,-1.71
2.076,-1.695
2.078,-1.665
2.08,-1.52
2.082,-1.46
2.084,-1.375
2.086,-1.355
2.088,-1.435
2.09,-1.47
2.092,-1.48
2.094,-1.68
2.096,-1.645
2.098,-1.645
2.1,-1.555
2.102,-1.455
2.104,-1.32
2.106,-1.48
2.108,-1.46
2.11,-1.51
2.112,-1.615
2.114,-1.77
2.116,-1.71
2.118,-1.68
2.12,-1.59
2.122,-1.485
2.124,-1.355
2.126,-1.365
2.128,-1.445
2.13,-1.505
2.132,-1.54
2.134,-1.595
2.136,-1.595
2.138,-1.44
2.14,-1.41
2.142,-1.48
2.144,-1.38
2.146,-1.535
2.148,-1.525
2.15,-1.535
2.152,-1.65
2.154,-1.64
2.156,-1.645
2.158,-1.72
2.16,-1.445
2.162,-1.49
2.164,-1.37
2.166,-1.375
2.168,-1.395
2.17,-1.47
2.172,-1.54
2.174,-1.59
2.176,-1.64
2.178,-1.685
2.18,-1.575
2.182,-1.45
2.184,-1.51
2.186,-1.425
2.188,-1.485
2.19,-1.53
2.192,-1.515
2.194,-1.66
2.196,-1.69
2.198,-1.58
2.2,-1.49
2.202,-1.51
2.204,-1.345
2.206,-1.405
2.208,-1.455
2.21,-1.55
2.212,-1.535
2.214,-1.665
2.216,-1.71
2.218,-1.65
2.22,-1.68
2.222,-1.565
2.224,-1.42
2.226,-1.305
2.228,-1.445
2.23,-1.5
2.232,-1.51
2.234,-1.545
2.236,-1.63
2.238,-1.545
2.24,-1.505
2.242,-1.445
2.244,-1.42
2.246,-1.43
2.248,-1.395
2.25,-1.53
2.252,-1.71
2.254,-1.725
2.256,-1.69
2.258,-1.64
2.26,-1.565
2.262,-1.44
2.264,-1.37
2.266,-1.395
2.268,-1.43
2.27,-1.55
2.272,-1.665
2.274,-1.675
2.276,-1.605
2.278,-1.56
2.28,-1.465
2.282,-1.385
2.284,-1.28
2.286,-1.265
2.288,-1.46
2.29,-1.475
2.292,-1.57
2.294,-1.575
2.296,-1.495
2.298,-1.435
2.3,-1.425
2.302,-1.305
2.304,-1.32
2.306,-1.335
2.308,-1.485
2.31,-1.52
2.312,-1.59
2.314,-1.545
2.316,-1.595
2.318,-1.47
2.32,-1.39
2.322,-1.405
2.324,-1.315
2.326,-1.43
2.328,-1.47
2.33,-1.535
2.332,-1.695
2.334,-1.6
2.336,-1.675
2.338,-1.62
2.34,-1.53
2.342,-1.42
2.344,-1.37
2.346,-1.395
2.348,-1.565
2.35,-1.52
2.352,-1.74
2.354,-1.715
2.356,-1.59
2.358,-1.53
2.36,-1.5
2.362,-1.48
2.364,-1.505
2.366,-1.49
2.368,-1.55
2.37,-1.6
2.372,-1.735
2.374,-1.795
2.376,-1.695
2.378,-1.595
2.38,-1.595
2.382,-1.455
2.384,-1.555
2.386,-1.565
2.388,-1.515
2.39,-1.5
2.392,-1.48
2.394,-1.355
2.396,-1.15
2.398,-1.05
2.4,-0.9
2.402,-0.68
2.404,-0.625
2.406,-0.6
2.408,-0.67
2.41,-0.665
2.412,-0.775
2.414,-0.62
2.416,-0.64
2.418,-0.665
2.42,-0.915
2.422,-1.045
2.424,-1.175
2.426,-1.29
2.428,-1.37
2.43,-1.405
2.432,-1.58
2.434,-1.54
2.436,-1.535
2.438,-1.455
2.44,-1.45
2.442,-1.31
2.444,-1.425
2.446,-1.48
2.448,-1.625
2.45,-1.57
2.452,-1.685
2.454,-1.7
2.456,-1.645
2.458,-1.59
2.46,-1.445
2.462,-1.35
2.464,-1.505
2.466,-1.56
2.468,-1.6
2.47,-1.685
2.472,-1.78
2.474,-1.71
2.476,-1.74
2.478,-1.62
2.48,-1.405
2.482,-1.385
2.484,-1.445
2.486,-1.6
2.488,-1.585
2.49,-1.61
2.492,-1.705
2.494,-1.725
2.496,-1.595
2.498,-1.55
2.5,-1.515
2.502,-1.38
2.504,-1.4
2.506,-1.49
2.508,-1.53
2.51,-1.685
2.512,-1.735
2.514,-1.705
2.516,-1.665
2.518,-1.495
2.52,-1.52
2.522,-1.37
2.524,-1.485
2.526,-1.495
2.528,-1.52
2.53,-1.62
2.532,-1.63
2.534,-1.485
2.536,-1.55
2.538,-1.54
2.54,-1.505
2.542,-1.42
2.544,-1.49
2.546,-1.465
2.548,-1.59
2.55,-1.515
2.552,-1.7
2.554,-1.7
2.556,-1.565
2.558,-1.45
2.56,-1.365
2.562,-1.485
2.564,-1.51
2.566,-1.35
2.568,-1.465
2.57,-1.66
2.572,-1.555
2.574,-1.58
2.576,-1.61
2.578,-1.4
2.58,-1.33
2.582,-1.23
2.584,-1.345
2.586,-1.425
2.588,-1.49
2.59,-1.59
2.592,-1.61
2.594,-1.555
2.596,-1.385
2.598,-1.44
2.6,-1.35
2.602,-1.245
2.604,-1.245
2.606,-1.34
2.608,-1.485
2.61,-1.355
2.612,-1.465
2.614,-1.4
2.616,-1.335
2.618,-1.25
2.62,-1.175
2.622,-1.19
2.624,-1.235
2.626,-1.36
2.628,-1.35
2.63,-1.49
2.632,-1.42
2.634,-1.37
2.636,-1.265
2.638,-1.245
2.64,-1.14
2.642,-1.13
2.644,-1.1
2.646,-1.16
2.648,-1.33
2.65,-1.545
2.652,-1.505
2.654,-1.34
2.656,-1.385
2.658,-1.23
2.66,-1.105
2.662,-1.19
2.664,-1.24
2.666,-1.3
2.668,-1.36
2.67,-1.38
2.672,-1.64
2.674,-1.445
2.676,-1.455
2.678,-1.355
2.68,-1.245
2.682,-1.345
2.684,-1.38
2.686,-1.46
2.688,-1.515
2.69,-1.615
2.692,-1.545
2.694,-1.53
2.696,-1.49
2.698,-1.47
2.7,-1.435
2.702,-1.41
2.704,-1.505
2.706,-1.44
2.708,-1.53
2.71,-1.67
2.712,-1.615
2.714,-1.605
2.716,-1.46
2.718,-1.495
2.72,-1.4
2.722,-1.415
2.724,-1.325
2.726,-1.59
2.728,-1.625
2.73,-1.735
2.732,-1.675
2.734,-1.58
2.736,-1.535
2.738,-1.5
2.74,-1.445
2.742,-1.345
2.744,-1.345
2.746,-1.525
2.748,-1.585
2.75,-1.65
2.752,-1.735
2.754,-1.605
2.756,-1.475
2.758,-1.465
2.76,-1.495
2.762,-1.485
2.764,-1.48
2.766,-1.59
2.768,-1.595
2.77,-1.68
2.772,-1.66
2.774,-1.595
2.776,-1.515
2.778,-1.505
2.78,-1.35
2.782,-1.49
2.784,-1.46
2.786,-1.58
2.788,-1.52
2.79,-1.62
2.792,-1.68
2.794,-1.525
2.796,-1.535
2.798,-1.485
2.8,-1.375
2.802,-1.475
2.804,-1.47
2.806,-1.6
2.808,-1.52
2.81,-1.74
2.812,-1.675
2.814,-1.58
2.816,-1.45
2.818,-1.51
2.82,-1.4
2.822,-1.41
2.824,-1.545
2.826,-1.535
2.828,-1.585
2.83,-1.7
2.832,-1.725
2.834,-1.59
2.836,-1.56
2.838,-1.445
2.84,-1.425
2.842,-1.495
2.844,-1.495
2.846,-1.635
2.848,-1.7
2.85,-1.73
2.852,-1.595
2.854,-1.62
2.856,-1.595
2.858,-1.445
2.86,-1.365
2.862,-1.455
2.864,-1.365
2.866,-1.58
2.868,-1.665
2.87,-1.725
2.872,-1.715
2.874,-1.54
2.876,-1.52
2.878,-1.415
2.88,-1.415
2.882,-1.385
2.884,-1.575
2.886,-1.6
2.888,-1.705
2.89,-1.69
2.892,-1.655
2.894,-1.595
2.896,-1.46
2.898,-1.36
2.9,-1.445
2.902,-1.455
2.904,-1.505
2.906,-1.67
2.908,-1.68
2.91,-1.67
2.912,-1.62
2.914,-1.575
2.916,-1.545
2.918,-1.455
2.92,-1.435
2.922,-1.43
2.924,-1.56
2.926,-1.65
2.928,-1.75
2.93,-1.77
2.932,-1.61
2.934,-1.63
2.936,-1.51
2.938,-1.405
2.94,-1.4
2.942,-1.505
2.944,-1.585
2.946,-1.565
2.948,-1.665
2.95,-1.635
2.952,-1.66
2.954,-1.53
2.956,-1.52
2.958,-1.365
2.96,-1.265
2.962,-1.465
2.964,-1.53
2.966,-1.65
2.968,-1.675
2.97,-1.695
2.972,-1.675
2.974,-1.53
2.976,-1.5
2.978,-1.29
2.98,-1.36
2.982,-1.275
2.984,-1.405
2.986,-1.405
2.988,-1.58
2.99,-1.535
2.992,-1.51
2.994,-1.585
2.996,-1.435
2.998,-1.315
3,-1.28
3.002,-1.38
3.004,-1.5
3.006,-1.55
3.008,-1.69
3.01,-1.595
3.012,-1.6
3.014,-1.575
3.016,-1.555
3.018,-1.405
3.02,-1.37
3.022,-1.455
3.024,-1.5
3.026,-1.525
3.028,-1.76
3.03,-1.725
3.032,-1.64
3.034,-1.53
3.036,-1.62
3.038,-1.41
3.04,-1.39
3.042,-1.44
3.044,-1.63
3.046,-1.665
3.048,-1.675
3.05,-1.635
3.052,-1.64
3.054,-1.58
3.056,-1.465
3.058,-1.51
3.06,-1.555
3.062,-1.56
3.064,-1.605
3.066,-1.565
3.068,-1.75
3.07,-1.855
3.072,-1.745
3.074,-1.665
3.076,-1.61
3.078,-1.45
3.08,-1.3
3.082,-1.32
3.084,-1.32
3.086,-1.165
3.088,-1.215
3.09,-1.16
3.092,-1.02
3.094,-0.775
3.096,-0.57
3.098,-0.49
3.1,-0.535
3.102,-0.545
3.104,-0.53
3.106,-0.47
3.108,-0.685
3.11,-0.895
3.112,-1.185
3.114,-1.33
3.116,-1.29
3.118,-1.325
3.12,-1.26
3.122,-1.31
3.124,-1.525
3.126,-1.465
3.128,-1.62
3.13,-1.63
3.132,-1.58
3.134,-1.51
3.136,-1.485
3.138,-1.445
3.14,-1.485
3.142,-1.49
3.144,-1.54
3.146,-1.715
3.148,-1.825
3.15,-1.68
3.152,-1.66
3.154,-1.5
3.156,-1.43
3.158,-1.4
3.16,-1.42
3.162,-1.555
3.164,-1.67
3.166,-1.755
3.168,-1.595
3.17,-1.585
3.172,-1.62
3.174,-1.58
3.176,-1.485
3.178,-1.445
3.18,-1.55
3.182,-1.5
3.184,-1.57
3.186,-1.695
3.188,-1.7
3.19,-1.725
3.192,-1.645
3.194,-1.505
3.196,-1.49
3.198,-1.495
3.2,-1.42
3.202,-1.56
3.204,-1.58
3.206,-1.64
3.208,-1.615
3.21,-1.635
3.212,-1.57
3.214,-1.555
3.216,-1.375
3.218,-1.435
3.22,-1.455
3.222,-1.65
3.224,-1.625
3.226,-1.615
3.228,-1.755
3.23,-1.64
3.232,-1.545
3.234,-1.465
3.236,-1.405
3.238,-1.355
3.24,-1.52
3.242,-1.425
3.244,-1.62
3.246,-1.605
3.248,-1.64
3.25,-1.62
3.252,-1.55
3.254,-1.58
3.256,-1.4
3.258,-1.365
3.26,-1.43
3.262,-1.45
3.264,-1.48
3.266,-1.64
3.268,-1.63
3.27,-1.515
3.272,-1.525
3.274,-1.465
3.276,-1.245
3.278,-1.33
3.28,-1.25
3.282,-1.455
3.284,-1.52
3.286,-1.555
3.288,-1.525
3.29,-1.495
3.292,-1.41
3.294,-1.365
3.296,-1.335
3.298,-1.29
3.3,-1.385
3.302,-1.335
3.304,-1.345
3.306,-1.58
3.308,-1.455
3.31,-1.365
3.312,-1.315
3.314,-1.285
3.316,-1.165
3.318,-1.245
3.32,-1.24
3.322,-1.26
3.324,-1.295
3.326,-1.27
3.328,-1.36
3.33,-1.225
3.332,-1.32
3.334,-1.25
3.336,-1.13
3.338,-1.185
3.34,-1.35
3.342,-1.36
3.344,-1.415
3.346,-1.545
3.348,-1.405
3.35,-1.315
3.352,-1.29
3.354,-1.305
3.356,-1.17
3.358,-1.15
3.36,-1.27
3.362,-1.345
3.364,-1.375
3.366,-1.51
3.368,-1.43
3.37,-1.515
3.372,-1.455
3.374,-1.445
3.376,-1.29
3.378,-1.445
3.38,-1.385
3.382,-1.615
3.384,-1.58
3.386,-1.585
3.388,-1.61
3.39,-1.52
3.392,-1.495
3.394,-1.47
3.396,-1.36
3.398,-1.405
3.4,-1.445
3.402,-1.505
3.404,-1.615
3.406,-1.705
3.408,-1.68
3.41,-1.6
3.412,-1.46
3.414,-1.42
3.416,-1.41
3.418,-1.345
3.42,-1.445
3.422,-1.58
3.424,-1.39
3.426,-1.7
3.428,-1.85
3.43,-1.63
3.432,-1.515
3.434,-1.47
3.436,-1.38
3.438,-1.44
3.44,-1.52
3.442,-1.58
3.444,-1.675
3.446,-1.67
3.448,-1.685
3.45,-1.625
3.452,-1.555
3.454,-1.425
3.456,-1.38
3.458,-1.415
3.46,-1.545
3.462,-1.555
3.464,-1.63
3.466,-1.58
3.468,-1.57
3.47,-1.545
3.472,-1.49
3.474,-1.45
3.476,-1.42
3.478,-1.395
3.48,-1.54
3.482,-1.605
3.484,-1.735
3.486,-1.675
3.488,-1.66
3.49,-1.6
3.492,-1.535
3.494,-1.445
3.496,-1.425
3.498,-1.435
3.5,-1.55
3.502,-1.495
3.504,-1.54
3.506,-1.62
3.508,-1.62
3.51,-1.545
3.512,-1.505
3.514,-1.38
3.516,-1.4
3.518,-1.505
3.52,-1.52
3.522,-1.575
3.524,-1.76
3.526,-1.725
3.528,-1.63
3.53,-1.665
3.532,-1.525
3.534,-1.385
3.536,-1.41
3.538,-1.445
3.54,-1.535
3.542,-1.59
3.544,-1.685
3.546,-1.645
3.548,-1.615
3.55,-1.585
3.552,-1.57
3.554,-1.365
3.556,-1.41
3.558,-1.435
3.56,-1.645
3.562,-1.555
3.564,-1.755
3.566,-1.705
3.568,-1.69
3.57,-1.515
3.572,-1.53
3.574,-1.33
3.576,-1.365
3.578,-1.475
3.58,-1.615
3.582,-1.57
3.584,-1.69
3.586,-1.675
3.588,-1.63
3.59,-1.555
3.592,-1.51
3.594,-1.43
3.596,-1.42
3.598,-1.46
3.6,-1.53
3.602,-1.56
3.604,-1.72
3.606,-1.56
3.608,-1.42
3.61,-1.485
3.612,-1.665
3.614,-1.58
3.616,-1.485
3.618,-1.5
3.62,-1.545
3.622,-1.625
3.624,-1.81
3.626,-1.69
3.628,-1.625
3.63,-1.52
3.632,-1.51
3.634,-1.38
3.636,-1.46
3.638,-1.5
3.64,-1.535
3.642,-1.55
3.644,-1.625
3.646,-1.62
3.648,-1.51
3.65,-1.62
3.652,-1.49
3.654,-1.36
3.656,-1.465
3.658,-1.57
3.66,-1.57
3.662,-1.65
3.664,-1.7
3.666,-1.68
3.668,-1.61
3.67,-1.5
3.672,-1.48
3.674,-1.295
3.676,-1.295
3.678,-1.455
3.68,-1.59
3.682,-1.585
3.684,-1.635
3.686,-1.67
3.688,-1.58
3.69,-1.48
3.692,-1.405
3.694,-1.305
3.696,-1.335
3.698,-1.47
3.7,-1.475
3.702,-1.48
3.704,-1.62
3.706,-1.49
3.708,-1.52
3.71,-1.38
3.712,-1.39
3.714,-1.31
3.716,-1.43
3.718,-1.375
3.72,-1.585
3.722,-1.575
3.724,-1.615
3.726,-1.62
3.728,-1.56
3.73,-1.485
3.732,-1.435
3.734,-1.41
3.736,-1.37
3.738,-1.39
3.74,-1.52
3.742,-1.71
3.744,-1.705
3.746,-1.7
3.748,-1.69
3.75,-1.6
3.752,-1.515
3.754,-1.395
3.756,-1.395
3.758,-1.53
3.76,-1.61
3.762,-1.68
3.764,-1.675
3.766,-1.71
3.768,-1.59
3.77,-1.595
3.772,-1.445
3.774,-1.495
3.776,-1.59
3.778,-1.83
3.78,-1.835
3.782,-1.705
3.784,-1.65
3.786,-1.705
3.788,-1.685
3.79,-1.495
3.792,-1.42
3.794,-1.24
3.796,-1.22
3.798,-1.25
3.8,-1.09
3.802,-1.17
3.804,-0.98
3.806,-0.825
3.808,-0.69
3.81,-0.575
3.812,-0.48
3.814,-0.51
3.816,-0.495
3.818,-0.565
3.82,-0.69
3.822,-0.94
3.824,-1.095
3.826,-1.385
3.828,-1.4
3.83,-1.36
3.832,-1.255
3.834,-1.3
3.836,-1.34
3.838,-1.39
3.84,-1.525
3.842,-1.595
3.844,-1.605
3.846,-1.595
3.848,-1.6
3.85,-1.48
3.852,-1.43
3.854,-1.46
3.856,-1.455
3.858,-1.565
3.86,-1.63
3.862,-1.785
3.864,-1.675
3.866,-1.82
3.868,-1.72
3.87,-1.5
3.872,-1.33
3.874,-1.365
3.876,-1.405
3.878,-1.555
3.88,-1.595
3.882,-1.735
3.884,-1.71
3.886,-1.67
3.888,-1.59
3.89,-1.545
3.892,-1.5
3.894,-1.435
3.896,-1.495
3.898,-1.545
3.9,-1.625
3.902,-1.75
3.904,-1.76
3.906,-1.69
3.908,-1.5
3.91,-1.55
3.912,-1.365
3.914,-1.395
3.916,-1.285
3.918,-1.55
3.92,-1.66
3.922,-1.71
3.924,-1.78
3.926,-1.66
3.928,-1.535
3.93,-1.545
3.932,-1.425
3.934,-1.415
3.936,-1.445
3.938,-1.64
3.94,-1.615
3.942,-1.675
3.944,-1.785
3.946,-1.655
3.948,-1.51
3.95,-1.51
3.952,-1.28
3.954,-1.36
3.956,-1.43
3.958,-1.505
3.96,-1.575
3.962,-1.62
3.964,-1.625
3.966,-1.56
3.968,-1.51
3.97,-1.53
3.972,-1.395
3.974,-1.31
3.976,-1.495
3.978,-1.425
3.98,-1.575
3.982,-1.605
3.984,-1.595
3.986,-1.425
3.988,-1.4
3.99,-1.29
3.992,-1.3
3.994,-1.305
3.996,-1.395
3.998,-1.405
4,-1.535
4.002,-1.57
4.004,-1.535
4.006,-1.45
4.008,-1.345
4.01,-1.34
4.012,-1.23
4.014,-1.21
4.016,-1.285
4.018,-1.41
4.02,-1.405
4.022,-1.4
4.024,-1.415
4.026,-1.335
4.028,-1.26
4.03,-1.27
4.032,-1.18
4.034,-1.185
4.036,-1.245
4.038,-1.44
4.04,-1.35
4.042,-1.45
4.044,-1.42
4.046,-1.34
4.048,-1.315
4.05,-1.185
4.052,-1.07
4.054,-1.195
4.056,-1.13
4.058,-1.265
4.06,-1.4
4.062,-1.4
4.064,-1.34
4.066,-1.39
4.068,-1.26
4.07,-1.205
4.072,-1.205
4.074,-1.43
4.076,-1.24
4.078,-1.33
4.08,-1.545
4.082,-1.52
4.084,-1.545
4.086,-1.44
4.088,-1.38
4.09,-1.305
4.092,-1.36
4.094,-1.415
4.096,-1.44
4.098,-1.485
4.1,-1.58
4.102,-1.6
4.104,-1.715
4.106,-1.53
4.108,-1.525
4.11,-1.335
4.112,-1.36
4.114,-1.395
4.116,-1.475
4.118,-1.565
4.12,-1.715
4.122,-1.705
4.124,-1.595
4.126,-1.57
4.128,-1.595
4.13,-1.425
4.132,-1.42
4.134,-1.57
4.136,-1.475
4.138,-1.545
4.14,-1.71
4.142,-1.56
4.144,-1.505
4.146,-1.485
4.148,-1.545
4.15,-1.365
4.152,-1.435
4.154,-1.49
4.156,-1.48
4.158,-1.535
4.16,-1.72
4.162,-1.66
4.164,-1.635
4.166,-1.58
4.168,-1.515
4.17,-1.47
4.172,-1.385
4.174,-1.43
4.176,-1.505
4.178,-1.545
4.18,-1.695
4.182,-1.645
4.184,-1.555
4.186,-1.475
4.188,-1.525
4.19,-1.44
4.192,-1.44
4.194,-1.495
4.196,-1.515
4.198,-1.625
4.2,-1.775
4.202,-1.705
4.204,-1.615
4.206,-1.565
4.208,-1.45
4.21,-1.355
4.212,-1.385
4.214,-1.47
4.216,-1.64
4.218,-1.615
4.22,-1.65
4.222,-1.64
4.224,-1.605
4.226,-1.555
4.228,-1.485
4.23,-1.4
4.232,-1.46
4.234,-1.555
4.236,-1.625
4.238,-1.55
4.24,-1.655
4.242,-1.67
4.244,-1.64
4.246,-1.52
4.248,-1.54
4.25,-1.36
4.252,-1.45
4.254,-1.48
4.256,-1.55
4.258,-1.675
4.26,-1.665
4.262,-1.7
4.264,-1.59
4.266,-1.525
4.268,-1.585
4.27,-1.36
4.272,-1.37
4.274,-1.425
4.276,-1.61
4.278,-1.575
4.28,-1.705
4.282,-1.72
4.284,-1.595
4.286,-1.535
4.288,-1.385
4.29,-1.505
4.292,-1.47
4.294,-1.455
4.296,-1.6
4.298,-1.67
4.3,-1.655
4.302,-1.655
4.304,-1.575
4.306,-1.59
4.308,-1.5
4.31,-1.41
4.312,-1.475
4.314,-1.555
4.316,-1.575
4.318,-1.57
4.32,-1.67
4.322,-1.745
4.324,-1.585
4.326,-1.5
4.328,-1.44
4.33,-1.465
4.332,-1.515
4.334,-1.47
4.336,-1.56
4.338,-1.635
4.34,-1.715
4.342,-1.645
4.344,-1.625
4.346,-1.56
4.348,-1.44
4.35,-1.455
4.352,-1.505
4.354,-1.545
4.356,-1.63
4.358,-1.64
4.36,-1.595
4.362,-1.68
4.364,-1.51
4.366,-1.53
4.368,-1.405
4.37,-1.48
4.372,-1.48
4.374,-1.515
4.376,-1.62
4.378,-1.605
4.38,-1.675
4.382,-1.625
4.384,-1.535
4.386,-1.515
4.388,-1.41
4.39,-1.445
4.392,-1.45
4.394,-1.485
4.396,-1.47
4.398,-1.61
4.4,-1.61
4.402,-1.565
4.404,-1.535
4.406,-1.395
4.408,-1.27
4.41,-1.27
4.412,-1.37
4.414,-1.445
4.416,-1.52
4.418,-1.65
4.42,-1.53
4.422,-1.5
4.424,-1.465
4.426,-1.4
4.428,-1.4
4.43,-1.37
4.432,-1.46
4.434,-1.48
4.436,-1.51
4.438,-1.73
4.44,-1.66
4.442,-1.565
4.444,-1.49
4.446,-1.545
4.448,-1.48
4.45,-1.395
4.452,-1.51
4.454,-1.62
4.456,-1.59
4.458,-1.79
4.46,-1.625
4.462,-1.63
4.464,-1.57
4.466,-1.465
4.468,-1.425
4.47,-1.415
4.472,-1.435
4.474,-1.53
4.476,-1.595
4.478,-1.71
4.48,-1.68
4.482,-1.6
4.484,-1.58
4.486,-1.67
4.488,-1.545
4.49,-1.5
4.492,-1.52
4.494,-1.665
4.496,-1.65
4.498,-1.785
4.5,-1.76
4.502,-1.625
4.504,-1.46
4.506,-1.365
4.508,-1.19
4.51,-0.98
4.512,-0.885
4.514,-1.02
4.516,-0.905
4.518,-0.995
4.52,-0.95
4.522,-0.76
4.524,-0.705
4.526,-0.655
4.528,-0.535
4.53,-0.53
4.532,-0.675
4.534,-0.945
4.536,-1.225
4.538,-1.595
4.54,-1.64
4.542,-1.65
4.544,-1.31
4.546,-1.315
4.548,-1.275
4.55,-1.38
4.552,-1.31
4.554,-1.485
4.556,-1.59
4.558,-1.67
4.56,-1.665
4.562,-1.59
4.564,-1.475
4.566,-1.59
4.568,-1.49
4.57,-1.505
4.572,-1.45
4.574,-1.625
4.576,-1.6
4.578,-1.695
4.58,-1.73
4.582,-1.62
4.584,-1.505
4.586,-1.535
4.588,-1.445
4.59,-1.385
4.592,-1.57
4.594,-1.65
4.596,-1.68
4.598,-1.7
4.6,-1.585
4.602,-1.555
4.604,-1.475
4.606,-1.425
4.608,-1.415
4.61,-1.505
4.612,-1.515
4.614,-1.57
4.616,-1.7
4.618,-1.695
4.62,-1.7
4.622,-1.495
4.624,-1.55
4.626,-1.49
4.628,-1.415
4.63,-1.445
4.632,-1.46
4.634,-1.575
4.636,-1.605
4.638,-1.57
4.64,-1.61
4.642,-1.6
4.644,-1.435
4.646,-1.56
4.648,-1.38
4.65,-1.415
4.652,-1.525
4.654,-1.59
4.656,-1.635
4.658,-1.64
4.66,-1.675
4.662,-1.48
4.664,-1.45
4.666,-1.355
4.668,-1.325
4.67,-1.375
4.672,-1.445
4.674,-1.555
4.676,-1.6
4.678,-1.56
4.68,-1.56
4.682,-1.455
4.684,-1.395
4.686,-1.255
4.688,-1.39
4.69,-1.365
4.692,-1.45
4.694,-1.485
4.696,-1.555
4.698,-1.595
4.7,-1.485
4.702,-1.49
4.704,-1.285
4.706,-1.22
4.708,-1.31
4.71,-1.255
4.712,-1.29
4.714,-1.435
4.716,-1.46
4.718,-1.485
4.72,-1.515
4.722,-1.325
4.724,-1.315
4.726,-1.27
4.728,-1.225
4.73,-1.17
4.732,-1.295
4.734,-1.295
4.736,-1.44
4.738,-1.375
4.74,-1.25
4.742,-1.25
4.744,-1.275
4.746,-1.15
4.748,-1.15
4.75,-1.125
4.752,-1.265
4.754,-1.29
4.756,-1.34
4.758,-1.35
4.76,-1.425
4.762,-1.215
4.764,-1.07
4.766,-1.08
4.768,-1.205
4.77,-1.165
4.772,-1.25
4.774,-1.385
4.776,-1.42
4.778,-1.425
4.78,-1.365
4.782,-1.23
4.784,-1.285
4.786,-1.17
4.788,-1.195
4.79,-1.255
4.792,-1.4
4.794,-1.42
4.796,-1.55
4.798,-1.555
4.8,-1.62
4.802,-1.42
4.804,-1.325
4.806,-1.27
4.808,-1.385
4.81,-1.465
4.812,-1.42
4.814,-1.505
4.816,-1.705
4.818,-1.625
4.82,-1.485
4.822,-1.39
4.824,-1.435
4.826,-1.4
4.828,-1.43
4.83,-1.425
4.832,-1.55
4.834,-1.595
4.836,-1.67
4.838,-1.725
4.84,-1.59
4.842,-1.525
4.844,-1.495
4.846,-1.445
4.848,-1.4
4.85,-1.495
4.852,-1.525
4.854,-1.57
4.856,-1.575
4.858,-1.665
4.86,-1.525
4.862,-1.44
4.864,-1.435
4.866,-1.365
4.868,-1.365
4.87,-1.495
4.872,-1.65
4.874,-1.62
4.876,-1.63
4.878,-1.58
4.88,-1.64
4.882,-1.555
4.884,-1.445
4.886,-1.465
4.888,-1.39
4.89,-1.495
4.892,-1.565
4.894,-1.605
4.896,-1.655
4.898,-1.54
4.9,-1.57
4.902,-1.445
4.904,-1.42
4.906,-1.415
4.908,-1.49
4.91,-1.565
4.912,-1.585
4.914,-1.645
4.916,-1.605
4.918,-1.6
4.92,-1.505
4.922,-1.51
4.924,-1.405
4.926,-1.355
4.928,-1.435
4.93,-1.535
4.932,-1.57
4.934,-1.605
4.936,-1.64
4.938,-1.56
4.94,-1.65
4.942,-1.4
4.944,-1.37
4.946,-1.375
4.948,-1.465
4.95,-1.52
4.952,-1.46
4.954,-1.595
4.956,-1.715
4.958,-1.645
4.96,-1.585
4.962,-1.545
4.964,-1.415
4.966,-1.395
4.968,-1.43
4.97,-1.495
4.972,-1.57
4.974,-1.585
4.976,-1.62
4.978,-1.575
4.98,-1.57
4.982,-1.555
4.984,-1.435
4.986,-1.38
4.988,-1.39
4.99,-1.415
4.992,-1.63
4.994,-1.69
4.996,-1.715
4.998,-1.62
5,-1.505
5.002,-1.47
5.004,-1.365
5.006,-1.38
5.008,-1.46
5.01,-1.48
5.012,-1.545
5.014,-1.75
5.016,-1.59
5.018,-1.475
5.02,-1.45
5.022,-1.38
5.024,-1.305
5.026,-1.38
5.028,-1.5
5.03,-1.58
5.032,-1.605
5.034,-1.72
5.036,-1.72
5.038,-1.61
5.04,-1.55
5.042,-1.545
5.044,-1.39
5.046,-1.35
5.048,-1.37
5.05,-1.535
5.052,-1.59
5.054,-1.615
5.056,-1.61
5.058,-1.635
5.06,-1.515
5.062,-1.5
5.064,-1.285
5.066,-1.355
5.068,-1.43
5.07,-1.63
5.072,-1.595
5.074,-1.68
5.076,-1.655
5.078,-1.72
5.08,-1.56
5.082,-1.45
5.084,-1.335
5.086,-1.375
5.088,-1.37
5.09,-1.525
5.092,-1.465
5.094,-1.61
5.096,-1.605
5.098,-1.495
5.1,-1.31
5.102,-1.32
5.104,-1.29
5.106,-1.185
5.108,-1.325
5.11,-1.39
5.112,-1.465
5.114,-1.55
5.116,-1.605
5.118,-1.54
5.12,-1.465
5.122,-1.41
5.124,-1.355
5.126,-1.37
5.128,-1.425
5.13,-1.515
5.132,-1.53
5.134,-1.645
5.136,-1.6
5.138,-1.565
5.14,-1.5
5.142,-1.485
5.144,-1.39
5.146,-1.465
5.148,-1.49
5.15,-1.46
5.152,-1.515
5.154,-1.785
5.156,-1.67
5.158,-1.55
5.16,-1.52
5.162,-1.48
5.164,-1.42
5.166,-1.37
5.168,-1.405
5.17,-1.49
5.172,-1.68
5.174,-1.68
5.176,-1.695
5.178,-1.555
5.18,-1.635
5.182,-1.48
5.184,-1.47
5.186,-1.475
5.188,-1.605
5.19,-1.625
5.192,-1.695
5.194,-1.74
5.196,-1.545
5.198,-1.435
5.2,-1.245
5.202,-1.03
5.204,-0.925
5.206,-0.885
5.208,-0.86
5.21,-0.715
5.212,-0.885
5.214,-0.885
5.216,-0.79
5.218,-0.72
5.22,-0.59
5.222,-0.415
5.224,-0.55
5.226,-0.705
5.228,-0.955
5.23,-1.49
5.232,-1.415
5.234,-1.48
5.236,-1.495
5.238,-1.395
5.24,-1.405
5.242,-1.39
5.244,-1.31
5.246,-1.305
5.248,-1.485
5.25,-1.42
5.252,-1.53
5.254,-1.65
5.256,-1.57
5.258,-1.565
5.26,-1.485
5.262,-1.395
5.264,-1.355
5.266,-1.43
5.268,-1.62
5.27,-1.565
5.272,-1.69
5.274,-1.65
5.276,-1.645
5.278,-1.515
5.28,-1.405
5.282,-1.41
5.284,-1.44
5.286,-1.455
5.288,-1.505
5.29,-1.595
5.292,-1.765
5.294,-1.69
5.296,-1.58
5.298,-1.605
5.3,-1.59
5.302,-1.475
5.304,-1.39
5.306,-1.425
5.308,-1.46
5.31,-1.585
5.312,-1.695
5.314,-1.675
5.316,-1.525
5.318,-1.49
5.32,-1.455
5.322,-1.34
5.324,-1.35
5.326,-1.43
5.328,-1.555
5.33,-1.57
5.332,-1.71
5.334,-1.63
5.336,-1.62
5.338,-1.56
5.34,-1.52
5.342,-1.3
5.344,-1.355
5.346,-1.45
5.348,-1.53
5.35,-1.525
5.352,-1.545
5.354,-1.63
5.356,-1.54
5.358,-1.43
5.36,-1.405
5.362,-1.295
5.364,-1.355
5.366,-1.395
5.368,-1.48
5.37,-1.6
5.372,-1.65
5.374,-1.585
5.376,-1.605
5.378,-1.535
5.38,-1.38
5.382,-1.295
5.384,-1.425
5.386,-1.36
5.388,-1.34
5.39,-1.4
5.392,-1.575
5.394,-1.55
5.396,-1.505
5.398,-1.425
5.4,-1.32
5.402,-1.29
5.404,-1.335
5.406,-1.28
5.408,-1.38
5.41,-1.425
5.412,-1.52
5.414,-1.4
5.416,-1.33
5.418,-1.32
5.42,-1.25
5.422,-1.165
5.424,-1.235
5.426,-1.35
5.428,-1.205
5.43,-1.325
5.432,-1.54
5.434,-1.37
5.436,-1.315
5.438,-1.22
5.44,-1.13
5.442,-1.12
5.444,-1.115
5.446,-1.135
5.448,-1.265
5.45,-1.325
5.452,-1.36
5.454,-1.42
5.456,-1.345
5.458,-1.22
5.46,-1.165
5.462,-1.17
5.464,-1.115
5.466,-1.215
5.468,-1.29
5.47,-1.295
5.472,-1.495
5.474,-1.28
5.476,-1.405
5.478,-1.335
5.48,-1.24
5.482,-1.21
5.484,-1.31
5.486,-1.37
5.488,-1.33
5.49,-1.515
5.492,-1.6
5.494,-1.63
5.496,-1.455
5.498,-1.45
5.5,-1.415
5.502,-1.295
5.504,-1.315
5.506,-1.425
5.508,-1.555
5.51,-1.53
5.512,-1.525
5.514,-1.65
5.516,-1.485
5.518,-1.405
5.52,-1.48
5.522,-1.375
5.524,-1.395
5.526,-1.49
5.528,-1.705
5.53,-1.57
5.532,-1.62
5.534,-1.655
5.536,-1.61
5.538,-1.505
5.54,-1.39
5.542,-1.395
5.544,-1.375
5.546,-1.46
5.548,-1.515
5.55,-1.62
5.552,-1.68
5.554,-1.58
5.556,-1.555
5.558,-1.505
5.56,-1.435
5.562,-1.35
5.564,-1.395
5.566,-1.565
5.568,-1.505
5.57,-1.65
5.572,-1.625
5.574,-1.665
5.576,-1.6
5.578,-1.505
5.58,-1.38
5.582,-1.24
5.584,-1.29
5.586,-1.44
5.588,-1.69
5.59,-1.595
5.592,-1.625
5.594,-1.6
5.596,-1.575
5.598,-1.59
5.6,-1.435
5.602,-1.34
5.604,-1.38
5.606,-1.515
5.608,-1.595
5.61,-1.695
5.612,-1.66
5.614,-1.565
5.616,-1.43
5.618,-1.455
5.62,-1.39
5.622,-1.44
5.624,-1.45
5.626,-1.51
5.628,-1.505
5.63,-1.565
5.632,-1.695
5.634,-1.6
5.636,-1.59
5.638,-1.46
5.64,-1.35
5.642,-1.4
5.644,-1.465
5.646,-1.55
5.648,-1.48
5.65,-1.65
5.652,-1.62
5.654,-1.57
5.656,-1.5
5.658,-1.465
5.66,-1.345
5.662,-1.285
5.664,-1.435
5.666,-1.505
5.668,-1.62
5.67,-1.72
5.672,-1.765
5.674,-1.66
5.676,-1.575
5.678,-1.415
5.68,-1.295
5.682,-1.395
5.684,-1.44
5.686,-1.46
5.688,-1.52
5.69,-1.655
5.692,-1.615
5.694,-1.57
5.696,-1.47
5.698,-1.535
5.7,-1.38
5.702,-1.405
5.704,-1.505
5.706,-1.53
5.708,-1.58
5.71,-1.655
5.712,-1.605
5.714,-1.555
5.716,-1.5
5.718,-1.37
5.72,-1.37
5.722,-1.36
5.724,-1.48
5.726,-1.605
5.728,-1.58
5.73,-1.635
5.732,-1.585
5.734,-1.54
5.736,-1.5
5.738,-1.61
5.74,-1.39
5.742,-1.365
5.744,-1.42
5.746,-1.475
5.748,-1.595
5.75,-1.57
5.752,-1.625
5.754,-1.54
5.756,-1.555
5.758,-1.51
5.76,-1.415
5.762,-1.315
5.764,-1.4
5.766,-1.48
5.768,-1.58
5.77,-1.635
5.772,-1.575
5.774,-1.53
5.776,-1.465
5.778,-1.45
5.78,-1.21
5.782,-1.345
5.784,-1.38
5.786,-1.445
5.788,-1.415
5.79,-1.47
5.792,-1.55
5.794,-1.35
5.796,-1.52
5.798,-1.275
5.8,-1.315
5.802,-1.34
5.804,-1.49
5.806,-1.525
5.808,-1.57
5.81,-1.55
5.812,-1.54
5.814,-1.41
5.816,-1.395
5.818,-1.455
5.82,-1.315
5.822,-1.45
5.824,-1.42
5.826,-1.46
5.828,-1.65
5.83,-1.725
5.832,-1.675
5.834,-1.545
5.836,-1.56
5.838,-1.39
5.84,-1.295
5.842,-1.415
5.844,-1.455
5.846,-1.57
5.848,-1.655
5.85,-1.68
5.852,-1.67
5.854,-1.56
5.856,-1.525
5.858,-1.36
5.86,-1.32
5.862,-1.415
5.864,-1.51
5.866,-1.57
5.868,-1.835
5.87,-1.75
5.872,-1.675
5.874,-1.655
5.876,-1.59
5.878,-1.505
5.88,-1.455
5.882,-1.4
5.884,-1.42
5.886,-1.41
5.888,-1.34
5.89,-1.1
5.892,-1.07
5.894,-0.935
5.896,-0.76
5.898,-0.555
5.9,-0.445
5.902,-0.5
5.904,-0.485
5.906,-0.525
5.908,-0.605
5.91,-0.625
5.912,-0.705
5.914,-0.795
5.916,-1.105
5.918,-1.085
5.92,-1.295
5.922,-1.28
5.924,-1.32
5.926,-1.35
5.928,-1.53
5.93,-1.41
5.932,-1.395
5.934,-1.405
5.936,-1.39
5.938,-1.31
5.94,-1.395
5.942,-1.55
5.944,-1.495
5.946,-1.515
5.948,-1.71
5.95,-1.72
5.952,-1.605
5.954,-1.565
5.956,-1.49
5.958,-1.41
5.96,-1.355
5.962,-1.465
5.964,-1.465
5.966,-1.485
5.968,-1.605
5.97,-1.575
5.972,-1.675
5.974,-1.595
5.976,-1.605
5.978,-1.435
5.98,-1.46
5.982,-1.44
5.984,-1.645
5.986,-1.575
5.988,-1.645
5.99,-1.675
5.992,-1.505
5.994,-1.43
5.996,-1.445
5.998,-1.365
6,-1.34
6.002,-1.505
6.004,-1.545
6.006,-1.57
6.008,-1.64
6.01,-1.64
6.012,-1.535
6.014,-1.475
6.016,-1.54
6.018,-1.35
6.02,-1.33
6.022,-1.365
6.024,-1.465
6.026,-1.6
6.028,-1.705
6.03,-1.64
6.032,-1.555
6.034,-1.5
6.036,-1.395
6.038,-1.345
6.04,-1.285
6.042,-1.49
6.044,-1.545
6.046,-1.435
6.048,-1.495
6.05,-1.535
6.052,-1.52
6.054,-1.435
6.056,-1.435
6.058,-1.35
6.06,-1.405
6.062,-1.525
6.064,-1.465
6.066,-1.51
6.068,-1.54
6.07,-1.42
6.072,-1.44
6.074,-1.37
6.076,-1.41
6.078,-1.23
6.08,-1.24
6.082,-1.235
6.084,-1.42
6.086,-1.5
6.088,-1.53
6.09,-1.54
6.092,-1.45
6.094,-1.37
6.096,-1.23
6.098,-1.22
6.1,-1.26
6.102,-1.315
6.104,-1.315
6.106,-1.355
6.108,-1.425
6.11,-1.355
6.112,-1.25
6.114,-1.21
6.116,-1.165
6.118,-1.13
6.12,-1.165
6.122,-1.315
6.124,-1.265
6.126,-1.305
6.128,-1.295
6.13,-1.405
6.132,-1.35
6.134,-1.185
6.136,-1.03
6.138,-1.12
6.14,-1.11
6.142,-1.135
6.144,-1.27
6.146,-1.37
6.148,-1.355
6.15,-1.375
6.152,-1.295
6.154,-1.25
6.156,-1.145
6.158,-1.15
6.16,-1.235
6.162,-1.255
6.164,-1.35
6.166,-1.425
6.168,-1.445
6.17,-1.41
6.172,-1.365
6.174,-1.27
6.176,-1.14
6.178,-1.195
6.18,-1.3
6.182,-1.4
6.184,-1.415
6.186,-1.56
6.188,-1.56
6.19,-1.535
6.192,-1.525
6.194,-1.43
6.196,-1.295
6.198,-1.245
6.2,-1.345
6.202,-1.505
6.204,-1.505
6.206,-1.625
6.208,-1.595
6.21,-1.575
6.212,-1.47
6.214,-1.455
6.216,-1.29
6.218,-1.395
6.22,-1.45
6.222,-1.405
6.224,-1.49
6.226,-1.71
6.228,-1.65
6.23,-1.5
6.232,-1.51
6.234,-1.455
6.236,-1.32
6.238,-1.365
6.24,-1.5
6.242,-1.48
6.244,-1.585
6.246,-1.615
6.248,-1.59
6.25,-1.5
6.252,-1.445
6.254,-1.455
6.256,-1.37
6.258,-1.305
6.26,-1.295
6.262,-1.52
6.264,-1.415
6.266,-1.575
6.268,-1.645
6.27,-1.585
6.272,-1.49
6.274,-1.44
6.276,-1.39
6.278,-1.36
6.28,-1.495
6.282,-1.535
6.284,-1.485
6.286,-1.64
6.288,-1.555
6.29,-1.59
6.292,-1.53
6.294,-1.36
6.296,-1.32
6.298,-1.3
6.3,-1.36
6.302,-1.415
6.304,-1.515
6.306,-1.67
6.308,-1.595
6.31,-1.55
6.312,-1.525
6.314,-1.545
6.316,-1.28
6.318,-1.315
6.32,-1.36
6.322,-1.43
6.324,-1.505
6.326,-1.64
6.328,-1.725
6.33,-1.61
6.332,-1.51
6.334,-1.385
6.336,-1.35
6.338,-1.42
6.34,-1.43
6.342,-1.45
6.344,-1.565
6.346,-1.65
6.348,-1.63
6.35,-1.515
6.352,-1.415
6.354,-1.415
6.356,-1.385
6.358,-1.4
6.36,-1.48
6.362,-1.58
6.364,-1.615
6.366,-1.65
6.368,-1.515
6.37,-1.55
6.372,-1.455
6.374,-1.395
6.376,-1.35
6.378,-1.415
6.38,-1.455
6.382,-1.47
6.384,-1.605
6.386,-1.595
6.388,-1.555
6.39,-1.515
6.392,-1.535
6.394,-1.395
6.396,-1.39
6.398,-1.4
6.4,-1.38
6.402,-1.445
6.404,-1.58
6.406,-1.64
6.408,-1.635
6.41,-1.625
6.412,-1.445
6.414,-1.33
6.416,-1.4
6.418,-1.36
6.42,-1.5
6.422,-1.585
6.424,-1.715
6.426,-1.67
6.428,-1.625
6.43,-1.415
6.432,-1.4
6.434,-1.305
6.436,-1.375
6.438,-1.4
6.44,-1.52
6.442,-1.52
6.444,-1.755
6.446,-1.555
6.448,-1.56
6.45,-1.54
6.452,-1.53
6.454,-1.405
6.456,-1.35
6.458,-1.36
6.46,-1.465
6.462,-1.44
6.464,-1.445
6.466,-1.495
6.468,-1.515
6.47,-1.345
6.472,-1.255
6.474,-1.24
6.476,-1.26
6.478,-1.23
6.48,-1.375
6.482,-1.54
6.484,-1.62
6.486,-1.475
6.488,-1.43
6.49,-1.395
6.492,-1.38
6.494,-1.36
6.496,-1.365
6.498,-1.435
6.5,-1.415
6.502,-1.55
6.504,-1.755
6.506,-1.71
6.508,-1.605
6.51,-1.525
6.512,-1.45
6.514,-1.305
6.516,-1.375
6.518,-1.415
6.52,-1.595
6.522,-1.52
6.524,-1.61
6.526,-1.595
6.528,-1.635
6.53,-1.505
6.532,-1.47
6.534,-1.38
6.536,-1.47
6.538,-1.37
6.54,-1.495
6.542,-1.505
6.544,-1.58
6.546,-1.7
6.548,-1.68
6.55,-1.61
6.552,-1.63
6.554,-1.41
6.556,-1.455
6.558,-1.54
6.56,-1.63
6.562,-1.5
6.564,-1.535
6.566,-1.455
6.568,-1.365
6.57,-1.08
6.572,-0.9
6.574,-0.8
6.576,-0.71
6.578,-0.675
6.58,-0.6
6.582,-0.65
6.584,-0.81
6.586,-0.735
6.588,-0.575
6.59,-0.535
6.592,-0.475
6.594,-0.53
6.596,-0.865
6.598,-1.11
6.6,-1.28
6.602,-1.375
6.604,-1.52
6.606,-1.515
6.608,-1.48
6.61,-1.44
6.612,-1.34
6.614,-1.19
6.616,-1.38
6.618,-1.365
6.62,-1.435
6.622,-1.585
6.624,-1.585
6.626,-1.585
6.628,-1.59
6.63,-1.555
6.632,-1.49
6.634,-1.46
6.636,-1.435
6.638,-1.41
6.64,-1.575
6.642,-1.525
6.644,-1.6
6.646,-1.67
6.648,-1.58
6.65,-1.435
6.652,-1.46
6.654,-1.415
6.656,-1.4
6.658,-1.46
6.66,-1.645
6.662,-1.64
6.664,-1.68
6.666,-1.645
6.668,-1.62
6.67,-1.555
6.672,-1.42
6.674,-1.38
6.676,-1.36
6.678,-1.41
6.68,-1.52
6.682,-1.54
6.684,-1.705
6.686,-1.735
6.688,-1.565
6.69,-1.525
6.692,-1.42
6.694,-1.31
6.696,-1.375
6.698,-1.475
6.7,-1.52
6.702,-1.635
6.704,-1.715
6.706,-1.545
6.708,-1.555
6.71,-1.505
6.712,-1.325
6.714,-1.315
6.716,-1.31
6.718,-1.56
6.72,-1.555
6.722,-1.615
6.724,-1.575
6.726,-1.585
6.728,-1.43
6.73,-1.455
6.732,-1.31
6.734,-1.27
6.736,-1.39
6.738,-1.295
6.74,-1.56
6.742,-1.615
6.744,-1.575
6.746,-1.52
6.748,-1.535
6.75,-1.38
6.752,-1.315
6.754,-1.295
6.756,-1.365
6.758,-1.42
6.76,-1.38
6.762,-1.465
6.764,-1.465
6.766,-1.55
6.768,-1.37
6.77,-1.29
6.772,-1.19
6.774,-1.24
6.776,-1.25
6.778,-1.305
6.78,-1.44
6.782,-1.59
6.784,-1.415
6.786,-1.375
6.788,-1.285
6.79,-1.285
6.792,-1.11
6.794,-1.115
6.796,-1.1
6.798,-1.17
6.8,-1.27
6.802,-1.365
6.804,-1.29
6.806,-1.41
6.808,-1.28
6.81,-1.17
6.812,-1.07
6.814,-1.105
6.816,-1.15
6.818,-1.28
6.82,-1.25
6.822,-1.46
6.824,-1.43
6.826,-1.27
6.828,-1.18
6.83,-1.21
6.832,-0.99
6.834,-1.135
6.836,-1.12
6.838,-1.2
6.84,-1.315
6.842,-1.39
6.844,-1.425
6.846,-1.42
6.848,-1.42
6.85,-1.235
6.852,-1.115
6.854,-1.25
6.856,-1.305
6.858,-1.345
6.86,-1.315
6.862,-1.47
6.864,-1.595
6.866,-1.53
6.868,-1.425
6.87,-1.385
6.872,-1.285
6.874,-1.225
6.876,-1.44
6.878,-1.485
6.88,-1.505
6.882,-1.59
6.884,-1.475
6.886,-1.54
6.888,-1.445
6.89,-1.44
6.892,-1.31
6.894,-1.35
6.896,-1.33
6.898,-1.435
6.9,-1.505
6.902,-1.565
6.904,-1.585
6.906,-1.535
6.908,-1.53
6.91,-1.445
6.912,-1.335
6.914,-1.405
6.916,-1.42
6.918,-1.42
6.92,-1.495
6.922,-1.58
6.924,-1.645
6.926,-1.46
6.928,-1.44
6.93,-1.415
6.932,-1.255
6.934,-1.29
6.936,-1.365
6.938,-1.56
6.94,-1.59
6.942,-1.525
6.944,-1.545
6.946,-1.53
6.948,-1.51
6.95,-1.26
6.952,-1.305
6.954,-1.375
6.956,-1.33
6.958,-1.5
6.96,-1.57
6.962,-1.65
6.964,-1.515
6.966,-1.47
6.968,-1.56
6.97,-1.385
6.972,-1.295
6.974,-1.395
6.976,-1.29
6.978,-1.585
6.98,-1.54
6.982,-1.605
6.984,-1.49
6.986,-1.49
6.988,-1.415
6.99,-1.415
6.992,-1.285
6.994,-1.35
6.996,-1.345
6.998,-1.425
7,-1.655
7.002,-1.645
7.004,-1.62
7.006,-1.535
7.008,-1.44
7.01,-1.4
7.012,-1.325
7.014,-1.325
7.016,-1.345
7.018,-1.455
7.02,-1.64
7.022,-1.665
7.024,-1.53
7.026,-1.565
7.028,-1.47
7.03,-1.28
7.032,-1.28
7.034,-1.355
7.036,-1.34
7.038,-1.46
7.04,-1.57
7.042,-1.655
7.044,-1.55
7.046,-1.46
7.048,-1.42
7.05,-1.305
7.052,-1.33
7.054,-1.43
7.056,-1.435
7.058,-1.61
7.06,-1.725
7.062,-1.63
7.064,-1.515
7.066,-1.4
7.068,-1.325
7.07,-1.325
7.072,-1.31
7.074,-1.33
7.076,-1.365
7.078,-1.5
7.08,-1.71
7.082,-1.58
7.084,-1.495
7.086,-1.43
7.088,-1.325
7.09,-1.4
7.092,-1.39
7.094,-1.425
7.096,-1.445
7.098,-1.49
7.1,-1.57
7.102,-1.625
7.104,-1.5
7.106,-1.415
7.108,-1.455
7.11,-1.325
7.112,-1.375
7.114,-1.415
7.116,-1.47
7.118,-1.525
7.12,-1.54
7.122,-1.55
7.124,-1.56
7.126,-1.44
7.128,-1.405
7.13,-1.235
7.132,-1.33
7.134,-1.305
7.136,-1.455
7.138,-1.485
7.14,-1.565
7.142,-1.51
7.144,-1.485
7.146,-1.47
7.148,-1.26
7.15,-1.225
7.152,-1.215
7.154,-1.315
7.156,-1.355
7.158,-1.515
7.16,-1.49
7.162,-1.4
7.164,-1.395
7.166,-1.32
7.168,-1.29
7.17,-1.195
7.172,-1.215
7.174,-1.235
7.176,-1.345
7.178,-1.525
7.18,-1.54
7.182,-1.54
7.184,-1.485
7.186,-1.445
7.188,-1.505
7.19,-1.285
7.192,-1.27
7.194,-1.405
7.196,-1.475
7.198,-1.495
7.2,-1.66
7.202,-1.55
7.204,-1.56
7.206,-1.41
7.208,-1.41
7.21,-1.235
7.212,-1.41
7.214,-1.43
7.216,-1.52
7.218,-1.395
7.22,-1.52
7.222,-1.605
7.224,-1.57
7.226,-1.51
7.228,-1.45
7.23,-1.31
7.232,-1.39
7.234,-1.435
7.236,-1.58
7.238,-1.655
7.24,-1.75
7.242,-1.81
7.244,-1.48
7.246,-1.445
7.248,-1.43
7.25,-1.29
7.252,-1.275
7.254,-1.275
7.256,-1.25
7.258,-1.095
7.26,-1.055
7.262,-0.98
7.264,-0.785
7.266,-0.6
7.268,-0.41
7.27,-0.36
7.272,-0.465
7.274,-0.47
7.276,-0.465
7.278,-0.6
7.28,-0.765
7.282,-0.875
7.284,-1.095
7.286,-1.06
7.288,-1.22
7.29,-1.14
7.292,-1.16
7.294,-1.235
7.296,-1.35
7.298,-1.435
7.3,-1.495
7.302,-1.45
7.304,-1.45
7.306,-1.435
7.308,-1.355
7.31,-1.33
7.312,-1.425
7.314,-1.47
7.316,-1.45
7.318,-1.625
7.32,-1.595
7.322,-1.54
7.324,-1.56
7.326,-1.445
7.328,-1.38
7.33,-1.315
7.332,-1.335
7.334,-1.475
7.336,-1.56
7.338,-1.58
7.34,-1.54
7.342,-1.545
7.344,-1.55
7.346,-1.515
7.348,-1.325
7.35,-1.33
7.352,-1.39
7.354,-1.505
7.356,-1.485
7.358,-1.57
7.36,-1.545
7.362,-1.515
7.364,-1.405
7.366,-1.44
7.368,-1.32
7.37,-1.435
7.372,-1.335
7.374,-1.51
7.376,-1.485
7.378,-1.6
7.38,-1.595
7.382,-1.51
7.384,-1.47
7.386,-1.38
7.388,-1.305
7.39,-1.35
7.392,-1.44
7.394,-1.38
7.396,-1.455
7.398,-1.575
7.4,-1.57
7.402,-1.53
7.404,-1.405
7.406,-1.365
7.408,-1.25
7.41,-1.405
7.412,-1.3
7.414,-1.37
7.416,-1.455
7.418,-1.485
7.42,-1.5
7.422,-1.52
7.424,-1.42
7.426,-1.385
7.428,-1.255
7.43,-1.225
7.432,-1.245
7.434,-1.36
7.436,-1.385
7.438,-1.495
7.44,-1.405
7.442,-1.42
7.444,-1.36
7.446,-1.305
7.448,-1.245
7.45,-1.17
7.452,-1.215
7.454,-1.295
7.456,-1.42
7.458,-1.415
7.46,-1.435
7.462,-1.34
7.464,-1.3
7.466,-1.17
7.468,-1.1
7.47,-1.1
7.472,-1.255
7.474,-1.195
7.476,-1.245
7.478,-1.37
7.48,-1.425
7.482,-1.27
7.484,-1.19
7.486,-1.14
7.488,-1.025
7.49,-1
7.492,-1.175
7.494,-1.185
7.496,-1.295
7.498,-1.3
7.5,-1.315
7.502,-1.235
7.504,-1.095
7.506,-1.1
7.508,-1.055
7.51,-1.04
7.512,-1.135
7.514,-1.175
7.516,-1.16
7.518,-1.39
7.52,-1.34
7.522,-1.25
7.524,-1.16
7.526,-1.095
7.528,-1.01
7.53,-0.985
7.532,-1.065
7.534,-1.155
7.536,-1.285
7.538,-1.515
7.54,-1.365
7.542,-1.315
7.544,-1.315
7.546,-1.28
7.548,-1.255
7.55,-1.27
7.552,-1.185
7.554,-1.395
7.556,-1.53
7.558,-1.47
7.56,-1.48
7.562,-1.395
7.564,-1.37
7.566,-1.285
7.568,-1.285
7.57,-1.2
7.572,-1.375
7.574,-1.47
7.576,-1.505
7.578,-1.645
7.58,-1.515
7.582,-1.465
7.584,-1.355
7.586,-1.24
7.588,-1.255
7.59,-1.36
7.592,-1.39
7.594,-1.41
7.596,-1.525
7.598,-1.6
7.6,-1.485
7.602,-1.405
7.604,-1.33
7.606,-1.265
7.608,-1.29
7.61,-1.35
7.612,-1.33
7.614,-1.385
7.616,-1.5
7.618,-1.525
7.62,-1.53
7.622,-1.52
7.624,-1.4
7.626,-1.315
7.628,-1.31
7.63,-1.385
7.632,-1.415
7.634,-1.435
7.636,-1.53
7.638,-1.5
7.64,-1.475
7.642,-1.455
7.644,-1.315
7.646,-1.315
7.648,-1.33
7.65,-1.335
7.652,-1.335
7.654,-1.48
7.656,-1.595
7.658,-1.625
7.66,-1.45
7.662,-1.36
7.664,-1.4
7.666,-1.195
7.668,-1.3
7.67,-1.285
7.672,-1.38
7.674,-1.47
7.676,-1.595
7.678,-1.525
7.68,-1.48
7.682,-1.47
7.684,-1.435
7.686,-1.33
7.688,-1.25
7.69,-1.265
7.692,-1.295
7.694,-1.5
7.696,-1.6
7.698,-1.525
7.7,-1.515
7.702,-1.455
7.704,-1.375
7.706,-1.16
7.708,-1.29
7.71,-1.25
7.712,-1.43
7.714,-1.585
7.716,-1.49
7.718,-1.56
7.72,-1.46
7.722,-1.435
7.724,-1.31
7.726,-1.365
7.728,-1.265
7.73,-1.36
7.732,-1.395
7.734,-1.35
7.736,-1.54
7.738,-1.665
7.74,-1.5
7.742,-1.42
7.744,-1.48
7.746,-1.25
7.748,-1.21
7.75,-1.31
7.752,-1.4
7.754,-1.415
7.756,-1.525
7.758,-1.55
7.76,-1.53
7.762,-1.425
7.764,-1.385
7.766,-1.255
7.768,-1.295
7.77,-1.38
7.772,-1.47
7.774,-1.45
7.776,-1.575
7.778,-1.485
7.78,-1.47
7.782,-1.355
7.784,-1.31
7.786,-1.215
7.788,-1.39
7.79,-1.4
7.792,-1.36
7.794,-1.425
7.796,-1.54
7.798,-1.545
7.8,-1.435
7.802,-1.365
7.804,-1.315
7.806,-1.265
7.808,-1.27
7.81,-1.385
7.812,-1.32
7.814,-1.405
7.816,-1.475
7.818,-1.5
7.82,-1.395
7.822,-1.265
7.824,-1.285
7.826,-1.225
7.828,-1.235
7.83,-1.195
7.832,-1.305
7.834,-1.34
7.836,-1.515
7.838,-1.37
7.84,-1.38
7.842,-1.28
7.844,-1.32
7.846,-1.215
7.848,-1.18
7.85,-1.315
7.852,-1.355
7.854,-1.54
7.856,-1.56
7.858,-1.52
7.86,-1.335
7.862,-1.28
7.864,-1.225
7.866,-1.26
7.868,-1.305
7.87,-1.41
7.872,-1.44
7.874,-1.52
7.876,-1.535
7.878,-1.455
7.88,-1.52
7.882,-1.435
7.884,-1.395
7.886,-1.275
7.888,-1.33
7.89,-1.345
7.892,-1.435
7.894,-1.5
7.896,-1.565
7.898,-1.485
7.9,-1.455
7.902,-1.395
7.904,-1.27
7.906,-1.375
7.908,-1.41
7.91,-1.44
7.912,-1.565
7.914,-1.7
7.916,-1.725
7.918,-1.615
7.92,-1.465
7.922,-1.42
7.924,-1.155
7.926,-1.025
7.928,-0.975
7.93,-0.95
7.932,-0.895
7.934,-0.865
7.936,-0.83
7.938,-0.74
7.94,-0.61
7.942,-0.57
7.944,-0.46
7.946,-0.42
7.948,-0.44
7.95,-0.445
7.952,-0.615
7.954,-0.95
7.956,-1.245
7.958,-1.33
7.96,-1.28
7.962,-1.27
7.964,-1.205
7.966,-1.22
7.968,-1.25
7.97,-1.32
7.972,-1.36
7.974,-1.46
7.976,-1.5
7.978,-1.485
7.98,-1.42
7.982,-1.395
7.984,-1.23
7.986,-1.225
7.988,-1.32
7.99,-1.415
7.992,-1.42
7.994,-1.695
7.996,-1.595
7.998,-1.49
8,-1.45
8.002,-1.395
8.004,-1.24
8.006,-1.26
8.008,-1.28
8.01,-1.345
8.012,-1.465
8.014,-1.555
8.016,-1.59
8.018,-1.44
8.02,-1.45
8.022,-1.485
8.024,-1.225
8.026,-1.295
8.028,-1.34
8.03,-1.485
8.032,-1.5
8.034,-1.5
8.036,-1.44
8.038,-1.465
8.04,-1.325
8.042,-1.37
8.044,-1.24
8.046,-1.33
8.048,-1.3
8.05,-1.345
8.052,-1.385
8.054,-1.625
8.056,-1.5
8.058,-1.47
8.06,-1.38
8.062,-1.335
8.064,-1.235
8.066,-1.28
8.068,-1.41
8.07,-1.4
8.072,-1.41
8.074,-1.58
8.076,-1.44
8.078,-1.375
8.08,-1.31
8.082,-1.275
8.084,-1.165
8.086,-1.11
8.088,-1.175
8.09,-1.32
8.092,-1.47
8.094,-1.47
8.096,-1.415
8.098,-1.52
8.1,-1.38
8.102,-1.275
8.104,-1.085
8.106,-1.175
8.108,-1.275
8.11,-1.325
8.112,-1.385
8.114,-1.43
8.116,-1.335
8.118,-1.39
8.12,-1.29
8.122,-1.085
8.124,-1.135
8.126,-1.145
8.128,-1.135
8.13,-1.28
8.132,-1.335
8.134,-1.43
8.136,-1.335
8.138,-1.22
8.14,-1.13
8.142,-1.075
8.144,-1.025
8.146,-1.07
8.148,-1.085
8.15,-1.165
8.152,-1.285
8.154,-1.275
8.156,-1.19
8.158,-1.285
8.16,-1.085
8.162,-1.01
8.164,-1.03
8.166,-1.015
8.168,-1.085
8.17,-1.145
8.172,-1.21
8.174,-1.195
8.176,-1.13
8.178,-1.145
8.18,-1.035
8.182,-0.985
8.184,-0.875
8.186,-0.975
8.188,-1.18
8.19,-1.13
8.192,-1.305
8.194,-1.4
8.196,-1.345
8.198,-1.12
8.2,-1.085
8.202,-1.025
8.204,-1.015
8.206,-1.05
8.208,-1.11
8.21,-1.165
8.212,-1.36
8.214,-1.36
8.216,-1.365
8.218,-1.39
8.22,-1.26
8.222,-1.1
8.224,-1.18
8.226,-1.235
8.228,-1.325
8.23,-1.3
8.232,-1.495
8.234,-1.49
8.236,-1.47
8.238,-1.31
8.24,-1.315
8.242,-1.18
8.244,-1.27
8.246,-1.3
8.248,-1.3
8.25,-1.405
8.252,-1.59
8.254,-1.47
8.256,-1.395
8.258,-1.36
8.26,-1.395
8.262,-1.315
8.264,-1.2
8.266,-1.275
8.268,-1.325
8.27,-1.405
8.272,-1.475
8.274,-1.485
8.276,-1.48
8.278,-1.37
8.28,-1.34
8.282,-1.275
8.284,-1.245
8.286,-1.39
8.288,-1.37
8.29,-1.425
8.292,-1.715
8.294,-1.565
8.296,-1.35
8.298,-1.34
8.3,-1.32
8.302,-1.21
8.304,-1.18
8.306,-1.225
8.308,-1.415
8.31,-1.435
8.312,-1.5
8.314,-1.46
8.316,-1.44
8.318,-1.41
8.32,-1.345
8.322,-1.285
8.324,-1.225
8.326,-1.355
8.328,-1.33
8.33,-1.395
8.332,-1.515
8.334,-1.51
8.336,-1.38
8.338,-1.3
8.34,-1.27
8.342,-1.155
8.344,-1.155
8.346,-1.25
8.348,-1.4
8.35,-1.41
8.352,-1.465
8.354,-1.515
8.356,-1.49
8.358,-1.37
8.36,-1.29
8.362,-1.2
8.364,-1.345
8.366,-1.245
8.368,-1.31
8.37,-1.355
8.372,-1.41
8.374,-1.415
8.376,-1.475
8.378,-1.355
8.38,-1.36
8.382,-1.25
8.384,-1.22
8.386,-1.45
8.388,-1.375
8.39,-1.405
8.392,-1.49
8.394,-1.44
8.396,-1.535
8.398,-1.29
8.4,-1.25
8.402,-1.235
8.404,-1.155
8.406,-1.315
8.408,-1.34
8.41,-1.43
8.412,-1.59
8.414,-1.56
8.416,-1.43
8.418,-1.3
8.42,-1.205
8.422,-1.23
8.424,-1.235
8.426,-1.275
8.428,-1.445
8.43,-1.41
8.432,-1.525
8.434,-1.485
8.436,-1.33
8.438,-1.255
8.44,-1.21
8.442,-1.165
8.444,-1.2
8.446,-1.275
8.448,-1.455
8.45,-1.48
8.452,-1.58
8.454,-1.545
8.456,-1.405
8.458,-1.385
8.46,-1.2
8.462,-1.255
8.464,-1.365
8.466,-1.305
8.468,-1.3
8.47,-1.45
8.472,-1.47
8.474,-1.41
8.476,-1.335
8.478,-1.25
8.48,-1.26
8.482,-1.26
8.484,-1.22
8.486,-1.245
8.488,-1.385
8.49,-1.425
8.492,-1.39
8.494,-1.365
8.496,-1.315
8.498,-1.3
8.5,-1.15
8.502,-1.075
8.504,-1.19
8.506,-1.105
8.508,-1.22
8.51,-1.405
8.512,-1.39
8.514,-1.41
8.516,-1.33
8.518,-1.275
8.52,-1.18
8.522,-1.115
8.524,-1.3
8.526,-1.345
8.528,-1.33
8.53,-1.525
8.532,-1.555
8.534,-1.54
8.536,-1.375
8.538,-1.275
8.54,-1.16
8.542,-1.155
8.544,-1.085
8.546,-1.39
8.548,-1.385
8.55,-1.47
8.552,-1.55
8.554,-1.485
8.556,-1.47
8.558,-1.36
8.56,-1.22
8.562,-1.295
8.564,-1.305
8.566,-1.325
8.568,-1.475
8.57,-1.495
8.572,-1.45
8.574,-1.5
8.576,-1.335
8.578,-1.45
8.58,-1.34
8.582,-1.33
8.584,-1.29
8.586,-1.38
8.588,-1.435
8.59,-1.485
8.592,-1.31
8.594,-1.1
8.596,-0.88
8.598,-0.74
8.6,-0.62
8.602,-0.545
8.604,-0.54
8.606,-0.49
8.608,-0.5
8.61,-0.635
8.612,-0.585
8.614,-0.415
8.616,-0.4
8.618,-0.45
8.62,-0.62
8.622,-0.935
8.624,-1.095
8.626,-1.21
8.628,-1.275
8.63,-1.375
8.632,-1.345
8.634,-1.32
8.636,-1.24
8.638,-1.205
8.64,-1.165
8.642,-1.14
8.644,-1.21
8.646,-1.255
8.648,-1.455
8.65,-1.545
8.652,-1.54
8.654,-1.43
8.656,-1.32
8.658,-1.38
8.66,-1.17
8.662,-1.21
8.664,-1.25
8.666,-1.41
8.668,-1.38
8.67,-1.495
8.672,-1.49
8.674,-1.445
8.676,-1.27
8.678,-1.315
8.68,-1.23
8.682,-1.215
8.684,-1.28
8.686,-1.41
8.688,-1.445
8.69,-1.55
8.692,-1.565
8.694,-1.505
8.696,-1.335
8.698,-1.295
8.7,-1.2
8.702,-1.155
8.704,-1.29
8.706,-1.42
8.708,-1.435
8.71,-1.565
8.712,-1.49
8.714,-1.455
8.716,-1.295
8.718,-1.25
8.72,-1.15
8.722,-1.175
8.724,-1.26
8.726,-1.33
8.728,-1.48
8.73,-1.495
8.732,-1.47
8.734,-1.45
8.736,-1.31
8.738,-1.285
8.74,-1.24
8.742,-1.23
8.744,-1.245
8.746,-1.31
8.748,-1.365
8.75,-1.42
8.752,-1.44
8.754,-1.27
8.756,-1.245
8.758,-1.14
8.76,-1.15
8.762,-1.255
8.764,-1.265
8.766,-1.27
8.768,-1.395
8.77,-1.41
8.772,-1.4
8.774,-1.265
8.776,-1.255
8.778,-1.095
8.78,-1.175
8.782,-1.26
8.784,-1.26
8.786,-1.37
8.788,-1.385
8.79,-1.3
8.792,-1.36
8.794,-1.26
8.796,-1.21
8.798,-1.205
8.8,-1.19
8.802,-1.265
8.804,-1.27
8.806,-1.325
8.808,-1.4
8.81,-1.38
8.812,-1.355
8.814,-1.285
8.816,-1.235
8.818,-1.08
8.82,-1.165
8.822,-1.18
8.824,-1.27
8.826,-1.285
8.828,-1.37
8.83,-1.345
8.832,-1.4
8.834,-1.285
8.836,-1.28
8.838,-1.18
8.84,-1.075
8.842,-1.205
8.844,-1.27
8.846,-1.31
8.848,-1.435
8.85,-1.43
8.852,-1.48
8.854,-1.405
8.856,-1.395
8.858,-1.19
8.86,-1.165
8.862,-1.23
8.864,-1.385
8.866,-1.375
8.868,-1.58
8.87,-1.51
8.872,-1.475
8.874,-1.445
8.876,-1.465
8.878,-1.345
8.88,-1.335
8.882,-1.435
8.884,-1.46
8.886,-1.62
8.888,-1.635
8.89,-1.49
8.892,-1.55
8.894,-1.5
8.896,-1.405
8.898,-1.3
8.9,-1.365
8.902,-1.41
8.904,-1.445
8.906,-1.465
8.908,-1.75
8.91,-1.655
8.912,-1.55
8.914,-1.45
8.916,-1.45
8.918,-1.295
8.92,-1.34
8.922,-1.455
8.924,-1.495
8.926,-1.525
8.928,-1.66
8.93,-1.495
8.932,-1.585
8.934,-1.545
8.936,-1.41
8.938,-1.315
8.94,-1.24
8.942,-1.35
8.944,-1.505
8.946,-1.535
8.948,-1.59
8.95,-1.51
8.952,-1.435
8.954,-1.555
8.956,-1.38
8.958,-1.26
8.96,-1.255
8.962,-1.37
8.964,-1.39
8.966,-1.445
8.968,-1.585
8.97,-1.625
8.972,-1.535
8.974,-1.455
8.976,-1.375
8.978,-1.28
8.98,-1.33
8.982,-1.385
8.984,-1.48
8.986,-1.455
8.988,-1.505
8.99,-1.47
8.992,-1.46
8.994,-1.505
8.996,-1.38
8.998,-1.21
9,-1.31
9.002,-1.4
9.004,-1.445
9.006,-1.475
9.008,-1.56
9.01,-1.505
9.012,-1.49
9.014,-1.465
9.016,-1.385
9.018,-1.165
9.02,-1.225
9.022,-1.295
9.024,-1.39
9.026,-1.5
9.028,-1.525
9.03,-1.675
9.032,-1.435
9.034,-1.385
9.036,-1.375
9.038,-1.24
9.04,-1.24
9.042,-1.285
9.044,-1.395
9.046,-1.385
9.048,-1.5
9.05,-1.535
9.052,-1.395
9.054,-1.39
9.056,-1.355
9.058,-1.255
9.06,-1.32
9.062,-1.375
9.064,-1.42
9.066,-1.505
9.068,-1.48
9.07,-1.44
9.072,-1.46
9.074,-1.28
9.076,-1.21
9.078,-1.235
9.08,-1.265
9.082,-1.35
9.084,-1.38
9.086,-1.475
9.088,-1.45
9.09,-1.375
9.092,-1.435
9.094,-1.355
9.096,-1.27
9.098,-1.255
9.1,-1.335
9.102,-1.385
9.104,-1.355
9.106,-1.47
9.108,-1.44
9.11,-1.555
9.112,-1.435
9.114,-1.25
9.116,-1.2
9.118,-1.255
9.12,-1.21
9.122,-1.32
9.124,-1.4
9.126,-1.52
9.128,-1.5
9.13,-1.44
9.132,-1.315
9.134,-1.265
9.136,-1.23
9.138,-1.29
9.14,-1.315
9.142,-1.32
9.144,-1.38
9.146,-1.425
9.148,-1.435
9.15,-1.325
9.152,-1.26
9.154,-1.23
9.156,-1.125
9.158,-1.06
9.16,-1.22
9.162,-1.19
9.164,-1.195
9.166,-1.415
9.168,-1.365
9.17,-1.24
9.172,-1.28
9.174,-1.19
9.176,-1.085
9.178,-1.105
9.18,-1.155
9.182,-1.355
9.184,-1.385
9.186,-1.42
9.188,-1.45
9.19,-1.46
9.192,-1.43
9.194,-1.245
9.196,-1.075
9.198,-1.125
9.2,-1.19
9.202,-1.285
9.204,-1.36
9.206,-1.555
9.208,-1.55
9.21,-1.425
9.212,-1.335
9.214,-1.225
9.216,-1.195
9.218,-1.155
9.22,-1.19
9.222,-1.32
9.224,-1.395
9.226,-1.475
9.228,-1.46
9.23,-1.38
9.232,-1.275
9.234,-1.36
9.236,-1.235
9.238,-1.225
9.24,-1.38
9.242,-1.47
9.244,-1.455
9.246,-1.565
9.248,-1.52
9.25,-1.5
9.252,-1.38
9.254,-1.305
9.256,-1.08
9.258,-1.065
9.26,-1.01
9.262,-0.905
9.264,-0.835
9.266,-0.805
9.268,-0.735
9.27,-0.575
9.272,-0.415
9.274,-0.31
9.276,-0.18
9.278,-0.31
9.28,-0.245
9.282,-0.295
9.284,-0.435
9.286,-0.75
9.288,-0.915
9.29,-1.105
9.292,-1.205
9.294,-1.105
9.296,-1.04
9.298,-1.005
9.3,-1.08
9.302,-1.2
9.304,-1.15
9.306,-1.325
9.308,-1.355
9.31,-1.29
9.312,-1.26
9.314,-1.265
9.316,-1.22
9.318,-1.22
9.32,-1.365
9.322,-1.38
9.324,-1.47
9.326,-1.4
9.328,-1.415
9.33,-1.425
9.332,-1.26
9.334,-1.1
9.336,-1.3
9.338,-1.22
9.34,-1.31
9.342,-1.355
9.344,-1.415
9.346,-1.4
9.348,-1.405
9.35,-1.345
9.352,-1.31
9.354,-1.15
9.356,-1.12
9.358,-1.29
9.36,-1.305
9.362,-1.41
9.364,-1.485
9.366,-1.465
9.368,-1.445
9.37,-1.42
9.372,-1.25
9.374,-1.185
9.376,-1.09
9.378,-1.06
9.38,-1.25
9.382,-1.34
9.384,-1.51
9.386,-1.47
9.388,-1.43
9.39,-1.325
9.392,-1.265
9.394,-1.18
9.396,-1.19
9.398,-1.21
9.4,-1.295
9.402,-1.28
9.404,-1.4
9.406,-1.41
9.408,-1.375
9.41,-1.31
9.412,-1.255
9.414,-1.065
9.416,-1.15
9.418,-1.24
9.42,-1.2
9.422,-1.26
9.424,-1.26
9.426,-1.26
9.428,-1.375
9.43,-1.25
9.432,-1.23
9.434,-1.095
9.436,-1.185
9.438,-1.22
9.44,-1.235
9.442,-1.215
9.444,-1.32
9.446,-1.265
9.448,-1.24
9.45,-1.2
9.452,-1.235
9.454,-0.905
9.456,-1.02
9.458,-1.115
9.46,-1.165
9.462,-1.145
9.464,-1.31
9.466,-1.25
9.468,-1.175
9.47,-1.14
9.472,-1.105
9.474,-0.985
9.476,-0.935
9.478,-1.025
9.48,-1.06
9.482,-1.08
9.484,-1.29
9.486,-1.26
9.488,-1.15
9.49,-1.105
9.492,-1.015
9.494,-0.88
9.496,-0.88
9.498,-0.95
9.5,-0.945
9.502,-1.02
9.504,-1.185
9.506,-1.1
9.508,-0.995
9.51,-1.06
9.512,-0.915
9.514,-0.82
9.516,-0.96
9.518,-0.96
9.52,-1.09
9.522,-1.1
9.524,-1.125
9.526,-1.135
9.528,-1.145
9.53,-0.995
9.532,-0.98
9.534,-0.92
9.536,-1.04
9.538,-1.07
9.54,-1.165
9.542,-1.265
9.544,-1.25
9.546,-1.195
9.548,-1.18
9.55,-1.12
9.552,-1.135
9.554,-1.055
9.556,-1.125
9.558,-1.165
9.56,-1.16
9.562,-1.325
9.564,-1.37
9.566,-1.32
9.568,-1.3
9.57,-1.175
9.572,-1.115
9.574,-1.17
9.576,-1.225
9.578,-1.21
9.58,-1.27
9.582,-1.335
9.584,-1.395
9.586,-1.375
9.588,-1.365
9.59,-1.25
9.592,-1.205
9.594,-1.1
9.596,-1.185
9.598,-1.2
9.6,-1.25
9.602,-1.24
9.604,-1.375
9.606,-1.29
9.608,-1.425
9.61,-1.255
9.612,-1.15
9.614,-1.065
9.616,-1.185
9.618,-1.16
9.62,-1.305
9.622,-1.36
9.624,-1.365
9.626,-1.295
9.628,-1.305
9.63,-1.23
9.632,-1.28
9.634,-1.065
9.636,-1.125
9.638,-1.245
9.64,-1.33
9.642,-1.36
9.644,-1.385
9.646,-1.32
9.648,-1.25
9.65,-1.17
9.652,-1.16
9.654,-1.15
9.656,-1.215
9.658,-1.235
9.66,-1.32
9.662,-1.355
9.664,-1.365
9.666,-1.31
9.668,-1.275
9.67,-1.335
9.672,-1.16
9.674,-1.095
9.676,-1.11
9.678,-1.155
9.68,-1.29
9.682,-1.355
9.684,-1.4
9.686,-1.295
9.688,-1.4
9.69,-1.28
9.692,-1.155
9.694,-1.1
9.696,-1.15
9.698,-1.24
9.7,-1.34
9.702,-1.43
9.704,-1.345
9.706,-1.32
9.708,-1.235
9.71,-1.29
9.712,-1.14
9.714,-1.115
9.716,-1.1
9.718,-1.18
9.72,-1.245
9.722,-1.455
9.724,-1.385
9.726,-1.325
9.728,-1.255
9.73,-1.295
9.732,-1.15
9.734,-1.09
9.736,-1.13
9.738,-1.25
9.74,-1.315
9.742,-1.35
9.744,-1.375
9.746,-1.38
9.748,-1.41
9.75,-1.195
9.752,-1.085
9.754,-1.11
9.756,-1.135
9.758,-1.235
9.76,-1.31
9.762,-1.415
9.764,-1.335
9.766,-1.3
9.768,-1.28
9.77,-1.215
9.772,-1.09
9.774,-1.165
9.776,-1.215
9.778,-1.215
9.78,-1.275
9.782,-1.4
9.784,-1.365
9.786,-1.375
9.788,-1.26
9.79,-1.16
9.792,-1.075
9.794,-1.22
9.796,-1.18
9.798,-1.265
9.8,-1.27
9.802,-1.37
9.804,-1.29
9.806,-1.39
9.808,-1.29
9.81,-1.175
9.812,-1.14
9.814,-1.155
9.816,-1.245
9.818,-1.105
9.82,-1.235
9.822,-1.295
9.824,-1.37
9.826,-1.365
9.828,-1.195
9.83,-1.085
9.832,-1.13
9.834,-1.085
9.836,-1.12
9.838,-1.13
9.84,-1.345
9.842,-1.305
9.844,-1.38
9.846,-1.055
9.848,-1.1
9.85,-1.11
9.852,-0.915
9.854,-0.875
9.856,-1.08
9.858,-1.165
9.86,-1.23
9.862,-1.43
9.864,-1.36
9.866,-1.345
9.868,-1.195
9.87,-1.135
9.872,-1.03
9.874,-1.24
9.876,-1.185
9.878,-1.295
9.88,-1.325
9.882,-1.395
9.884,-1.37
9.886,-1.255
9.888,-1.185
9.89,-1.175
9.892,-1.195
9.894,-1.12
9.896,-1.18
9.898,-1.29
9.9,-1.395
9.902,-1.345
9.904,-1.4
9.906,-1.33
9.908,-1.21
9.91,-1.175
9.912,-1.11
9.914,-1.08
9.916,-1.22
9.918,-1.35
9.92,-1.48
9.922,-1.49
9.924,-1.55
9.926,-1.41
9.928,-1.4
9.93,-1.245
9.932,-1.145
9.934,-1.16
9.936,-1.095
9.938,-1.185
9.94,-1.2
9.942,-1.055
9.944,-0.895
9.946,-0.795
9.948,-0.575
9.95,-0.27
9.952,-0.235
9.954,-0.22
9.956,-0.355
9.958,-0.385
9.96,-0.48
9.962,-0.3
9.964,-0.27
9.966,-0.485
9.968,-0.57
9.97,-0.75
9.972,-0.88
9.974,-0.995
9.976,-1.12
9.978,-1.13
9.98,-1.225
9.982,-1.285
9.984,-1.16
9.986,-1.235
9.988,-1.24
9.99,-1.025
9.992,-1.04
9.994,-1.09
9.996,-1.295
9.998,-1.36
