0,0.2
0.002,0.295
0.004,0.385
0.006,0.5
0.008,0.64
0.01,0.5
0.012,0.545
0.014,0.39
0.016,0.34
0.018,0.245
0.02,0.33
0.022,0.285
0.024,0.445
0.026,0.415
0.028,0.615
0.03,0.465
0.032,0.385
0.034,0.625
0.036,0.36
0.038,0.27
0.04,0.32
0.042,0.425
0.044,0.515
0.046,0.565
0.048,0.705
0.05,0.7
0.052,0.59
0.054,0.465
0.056,0.29
0.058,0.295
0.06,0.425
0.062,0.55
0.064,0.6
0.066,0.72
0.068,0.81
0.07,0.65
0.072,0.6
0.074,0.535
0.076,0.36
0.078,0.395
0.08,0.395
0.082,0.535
0.084,0.615
0.086,0.79
0.088,0.835
0.09,0.6
0.092,0.53
0.094,0.415
0.096,0.2
0.098,0.275
0.1,0.335
0.102,0.41
0.104,0.58
0.106,0.68
0.108,0.53
0.11,0.515
0.112,0.42
0.114,0.265
0.116,0.05
0.118,0.175
0.12,0.295
0.122,0.415
0.124,0.385
0.126,0.515
0.128,0.52
0.13,0.45
0.132,0.44
0.134,0.375
0.136,0.14
0.138,0.185
0.14,0.275
0.142,0.485
0.144,0.405
0.146,0.36
0.148,0.32
0.15,0.48
0.152,0.325
0.154,0.425
0.156,0.27
0.158,0.2
0.16,0.315
0.162,0.315
0.164,0.39
0.166,0.41
0.168,0.22
0.17,0.335
0.172,0.435
0.174,0.29
0.176,0.17
0.178,0.17
0.18,0.22
0.182,0.375
0.184,0.295
0.186,0.49
0.188,0.56
0.19,0.5
0.192,0.32
0.194,0.45
0.196,0.255
0.198,0.025
0.2,0.22
0.202,0.365
0.204,0.46
0.206,0.535
0.208,0.65
0.21,0.45
0.212,0.33
0.214,0.205
0.216,0.175
0.218,0.28
0.22,0.31
0.222,0.385
0.224,0.355
0.226,0.525
0.228,0.495
0.23,0.435
0.232,0.27
0.234,0.25
0.236,0.05
0.238,0.245
0.24,0.26
0.242,0.435
0.244,0.385
0.246,0.46
0.248,0.53
0.25,0.46
0.252,0.32
0.254,0.275
0.256,0.215
0.258,0.33
0.26,0.355
0.262,0.31
0.264,0.395
0.266,0.555
0.268,0.54
0.27,0.45
0.272,0.385
0.274,0.345
0.276,0.32
0.278,0.245
0.28,0.24
0.282,0.315
0.284,0.39
0.286,0.55
0.288,0.605
0.29,0.35
0.292,0.305
0.294,0.22
0.296,0.12
0.298,0.07
0.3,0.315
0.302,0.385
0.304,0.565
0.306,0.46
0.308,0.465
0.31,0.305
0.312,0.265
0.314,0.275
0.316,0.125
0.318,0.04
0.32,0.175
0.322,0.34
0.324,0.53
0.326,0.515
0.328,0.48
0.33,0.49
0.332,0.335
0.334,0.18
0.336,0.2
0.338,0.15
0.34,0.21
0.342,0.375
0.344,0.455
0.346,0.43
0.348,0.43
0.35,0.475
0.352,0.37
0.354,0.355
0.356,0.55
0.358,0.54
0.36,0.63
0.362,0.705
0.364,0.74
0.366,0.72
0.368,0.55
0.37,0.505
0.372,0.37
0.374,0.075
0.376,-0.015
0.378,-0.02
0.38,0.06
0.382,0.15
0.384,0.375
0.386,0.395
0.388,0.31
0.39,0.155
0.392,0.105
0.394,0.26
0.396,0.015
0.398,0.205
0.4,0.235
0.402,0.34
0.404,0.58
0.406,0.5
0.408,0.245
0.41,0.305
0.412,0.225
0.414,0.105
0.416,0.165
0.418,0.22
0.42,0.28
0.422,0.405
0.424,0.435
0.426,0.495
0.428,0.395
0.43,0.285
0.432,0.3
0.434,0.125
0.436,0.195
0.438,0.245
0.44,0.305
0.442,0.425
0.444,0.54
0.446,0.545
0.448,0.455
0.45,0.285
0.452,0.245
0.454,0.075
0.456,0.215
0.458,0.245
0.46,0.275
0.462,0.405
0.464,0.57
0.466,0.485
0.468,0.465
0.47,0.4
0.472,0.275
0.474,0.1
0.476,0.21
0.478,0.305
0.48,0.45
0.482,0.495
0.484,0.435
0.486,0.42
0.488,0.36
0.49,0.45
0.492,0.28
0.494,0.255
0.496,0.24
0.498,0.215
0.5,0.26
0.502,0.55
0.504,0.64
0.506,0.6
0.508,0.49
0.51,0.5
0.512,0.435
0.514,0.28
0.516,0.27
0.518,0.435
0.52,0.5
0.522,0.47
0.524,0.585
0.526,0.62
0.528,0.615
0.53,0.585
0.532,0.48
0.534,0.445
0.536,0.375
0.538,0.445
0.54,0.575
0.542,0.71
0.544,0.8
0.546,0.595
0.548,0.6
0.55,0.57
0.552,0.435
0.554,0.355
0.556,0.475
0.558,0.54
0.56,0.555
0.562,0.6
0.564,0.665
0.566,0.605
0.568,0.66
0.57,0.61
0.572,0.33
0.574,0.325
0.576,0.375
0.578,0.43
0.58,0.455
0.582,0.47
0.584,0.505
0.586,0.585
0.588,0.51
0.59,0.4
0.592,0.375
0.594,0.24
0.596,0.195
0.598,0.31
0.6,0.45
0.602,0.455
0.604,0.515
0.606,0.46
0.608,0.41
0.61,0.34
0.612,0.28
0.614,0.14
0.616,0.15
0.618,0.27
0.62,0.32
0.622,0.46
0.624,0.485
0.626,0.45
0.628,0.435
0.63,0.45
0.632,0.18
0.634,0.2
0.636,0.195
0.638,0.345
0.64,0.43
0.642,0.475
0.644,0.515
0.646,0.55
0.648,0.44
0.65,0.425
0.652,0.14
0.654,0.335
0.656,0.3
0.658,0.305
0.66,0.26
0.662,0.505
0.664,0.495
0.666,0.585
0.668,0.455
0.67,0.37
0.672,0.165
0.674,0.22
0.676,0.31
0.678,0.32
0.68,0.4
0.682,0.455
0.684,0.365
0.686,0.465
0.688,0.52
0.69,0.435
0.692,0.265
0.694,0.205
0.696,0.26
0.698,0.455
0.7,0.415
0.702,0.56
0.704,0.52
0.706,0.52
0.708,0.405
0.71,0.39
0.712,0.225
0.714,0.265
0.716,0.135
0.718,0.325
0.72,0.405
0.722,0.595
0.724,0.485
0.726,0.54
0.728,0.425
0.73,0.405
0.732,0.315
0.734,0.335
0.736,0.34
0.738,0.37
0.74,0.465
0.742,0.54
0.744,0.575
0.746,0.525
0.748,0.285
0.75,0.315
0.752,0.2
0.754,0.315
0.756,0.29
0.758,0.38
0.76,0.37
0.762,0.555
0.764,0.505
0.766,0.395
0.768,0.45
0.77,0.32
0.772,0.145
0.774,0.165
0.776,0.265
0.778,0.39
0.78,0.33
0.782,0.505
0.784,0.56
0.786,0.455
0.788,0.33
0.79,0.365
0.792,0.145
0.794,0.145
0.796,0.205
0.798,0.405
0.8,0.45
0.802,0.51
0.804,0.555
0.806,0.46
0.808,0.345
0.81,0.32
0.812,0.22
0.814,0.18
0.816,0.435
0.818,0.615
0.82,0.78
0.822,0.975
0.824,0.91
0.826,0.91
0.828,0.63
0.83,0.47
0.832,0.39
0.834,0.375
0.836,0.35
0.838,0.345
0.84,0.32
0.842,0.3
0.844,0.2
0.846,0.23
0.848,0.14
0.85,0.33
0.852,0.15
0.854,0.08
0.856,0.185
0.858,0.325
0.86,0.355
0.862,0.5
0.864,0.46
0.866,0.38
0.868,0.275
0.87,0.28
0.872,0.16
0.874,0.09
0.876,0.23
0.878,0.41
0.88,0.34
0.882,0.59
0.884,0.61
0.886,0.475
0.888,0.35
0.89,0.195
0.892,0.265
0.894,0.215
0.896,0.235
0.898,0.38
0.9,0.51
0.902,0.525
0.904,0.505
0.906,0.455
0.908,0.31
0.91,0.295
0.912,0.23
0.914,0.15
0.916,0.29
0.918,0.375
0.92,0.41
0.922,0.56
0.924,0.6
0.926,0.53
0.928,0.345
0.93,0.36
0.932,0.165
0.934,0.275
0.936,0.34
0.938,0.37
0.94,0.47
0.942,0.61
0.944,0.495
0.946,0.445
0.948,0.365
0.95,0.275
0.952,0.32
0.954,0.275
0.956,0.41
0.958,0.575
0.96,0.415
0.962,0.455
0.964,0.52
0.966,0.51
0.968,0.485
0.97,0.405
0.972,0.25
0.974,0.4
0.976,0.575
0.978,0.5
0.98,0.605
0.982,0.625
0.984,0.61
0.986,0.535
0.988,0.56
0.99,0.335
0.992,0.435
0.994,0.43
0.996,0.555
0.998,0.63
1,0.79
1.002,0.78
1.004,0.785
1.006,0.615
1.008,0.45
1.01,0.455
1.012,0.54
1.014,0.55
1.016,0.515
1.018,0.71
1.02,0.95
1.022,0.705
1.024,0.6
1.026,0.605
1.028,0.51
1.03,0.405
1.032,0.38
1.034,0.41
1.036,0.49
1.038,0.63
1.04,0.73
1.042,0.71
1.044,0.725
1.046,0.44
1.048,0.415
1.05,0.185
1.052,0.2
1.054,0.465
1.056,0.43
1.058,0.505
1.06,0.65
1.062,0.51
1.064,0.545
1.066,0.48
1.068,0.36
1.07,0.185
1.072,0.18
1.074,0.145
1.076,0.215
1.078,0.525
1.08,0.56
1.082,0.505
1.084,0.44
1.086,0.26
1.088,0.375
1.09,0.28
1.092,0.285
1.094,0.305
1.096,0.31
1.098,0.495
1.1,0.52
1.102,0.565
1.104,0.39
1.106,0.5
1.108,0.295
1.11,0.265
1.112,0.245
1.114,0.28
1.116,0.39
1.118,0.345
1.12,0.585
1.122,0.465
1.124,0.455
1.126,0.36
1.128,0.385
1.13,0.255
1.132,0.315
1.134,0.215
1.136,0.44
1.138,0.39
1.14,0.565
1.142,0.51
1.144,0.475
1.146,0.33
1.148,0.415
1.15,0.26
1.152,0.245
1.154,0.24
1.156,0.415
1.158,0.455
1.16,0.59
1.162,0.61
1.164,0.595
1.166,0.35
1.168,0.26
1.17,0.2
1.172,0.17
1.174,0.35
1.176,0.475
1.178,0.425
1.18,0.62
1.182,0.62
1.184,0.52
1.186,0.45
1.188,0.39
1.19,0.21
1.192,0.18
1.194,0.38
1.196,0.48
1.198,0.57
1.2,0.565
1.202,0.58
1.204,0.49
1.206,0.43
1.208,0.31
1.21,0.125
1.212,0.185
1.214,0.275
1.216,0.44
1.218,0.555
1.22,0.595
1.222,0.535
1.224,0.52
1.226,0.325
1.228,0.185
1.23,0.135
1.232,0.23
1.234,0.285
1.236,0.395
1.238,0.54
1.24,0.55
1.242,0.525
1.244,0.295
1.246,0.33
1.248,0.295
1.25,0.225
1.252,0.33
1.254,0.37
1.256,0.37
1.258,0.48
1.26,0.555
1.262,0.495
1.264,0.4
1.266,0.365
1.268,0.105
1.27,0.21
1.272,0.325
1.274,0.43
1.276,0.45
1.278,0.665
1.28,0.775
1.282,0.87
1.284,0.915
1.286,0.81
1.288,0.5
1.29,0.42
1.292,0.45
1.294,0.495
1.296,0.51
1.298,0.63
1.3,0.47
1.302,0.26
1.304,0.16
1.306,0.185
1.308,0.025
1.31,0.15
1.312,0.19
1.314,0.265
1.316,0.415
1.318,0.44
1.32,0.515
1.322,0.535
1.324,0.385
1.326,0.34
1.328,0.18
1.33,0.17
1.332,0.285
1.334,0.435
1.336,0.33
1.338,0.545
1.34,0.59
1.342,0.5
1.344,0.33
1.346,0.26
1.348,0.225
1.35,0.155
1.352,0.325
1.354,0.425
1.356,0.41
1.358,0.53
1.36,0.51
1.362,0.525
1.364,0.4
1.366,0.405
1.368,0.17
1.37,0.2
1.372,0.26
1.374,0.33
1.376,0.415
1.378,0.63
1.38,0.495
1.382,0.615
1.384,0.43
1.386,0.38
1.388,0.31
1.39,0.355
1.392,0.285
1.394,0.38
1.396,0.45
1.398,0.655
1.4,0.605
1.402,0.53
1.404,0.485
1.406,0.345
1.408,0.255
1.41,0.275
1.412,0.295
1.414,0.455
1.416,0.475
1.418,0.495
1.42,0.535
1.422,0.465
1.424,0.495
1.426,0.355
1.428,0.345
1.43,0.42
1.432,0.43
1.434,0.535
1.436,0.57
1.438,0.64
1.44,0.75
1.442,0.665
1.444,0.575
1.446,0.525
1.448,0.36
1.45,0.355
1.452,0.475
1.454,0.455
1.456,0.79
1.458,0.7
1.46,0.685
1.462,0.79
1.464,0.75
1.466,0.665
1.468,0.415
1.47,0.455
1.472,0.49
1.474,0.735
1.476,0.74
1.478,0.835
1.48,0.795
1.482,0.705
1.484,0.52
1.486,0.62
1.488,0.36
1.49,0.51
1.492,0.45
1.494,0.665
1.496,0.66
1.498,0.59
1.5,0.66
1.502,0.52
1.504,0.49
1.506,0.42
1.508,0.315
1.51,0.345
1.512,0.33
1.514,0.535
1.516,0.53
1.518,0.525
1.52,0.56
1.522,0.575
1.524,0.395
1.526,0.285
1.528,0.21
1.53,0.2
1.532,0.365
1.534,0.49
1.536,0.445
1.538,0.7
1.54,0.48
1.542,0.39
1.544,0.395
1.546,0.255
1.548,0.18
1.55,0.24
1.552,0.36
1.554,0.435
1.556,0.64
1.558,0.56
1.56,0.55
1.562,0.385
1.564,0.345
1.566,0.35
1.568,0.33
1.57,0.3
1.572,0.36
1.574,0.4
1.576,0.505
1.578,0.475
1.58,0.42
1.582,0.365
1.584,0.495
1.586,0.31
1.588,0.21
1.59,0.33
1.592,0.385
1.594,0.5
1.596,0.515
1.598,0.555
1.6,0.57
1.602,0.455
1.604,0.37
1.606,0.23
1.608,0.2
1.61,0.245
1.612,0.435
1.614,0.44
1.616,0.55
1.618,0.565
1.62,0.635
1.622,0.475
1.624,0.35
1.626,0.235
1.628,0.23
1.63,0.215
1.632,0.41
1.634,0.525
1.636,0.565
1.638,0.5
1.64,0.48
1.642,0.4
1.644,0.335
1.646,0.345
1.648,0.4
1.65,0.495
1.652,0.34
1.654,0.39
1.656,0.67
1.658,0.57
1.66,0.605
1.662,0.4
1.664,0.43
1.666,0.07
1.668,0.43
1.67,0.315
1.672,0.51
1.674,0.44
1.676,0.58
1.678,0.62
1.68,0.385
1.682,0.365
1.684,0.365
1.686,0.235
1.688,0.185
1.69,0.255
1.692,0.405
1.694,0.43
1.696,0.595
1.698,0.535
1.7,0.565
1.702,0.46
1.704,0.265
1.706,0.24
1.708,0.265
1.71,0.295
1.712,0.42
1.714,0.425
1.716,0.435
1.718,0.55
1.72,0.445
1.722,0.38
1.724,0.435
1.726,0.275
1.728,0.215
1.73,0.175
1.732,0.235
1.734,0.62
1.736,0.675
1.738,0.805
1.74,0.87
1.742,0.76
1.744,0.755
1.746,0.735
1.748,0.715
1.75,0.525
1.752,0.615
1.754,0.57
1.756,0.625
1.758,0.555
1.76,0.385
1.762,0.195
1.764,0.11
1.766,-0.05
1.768,0.06
1.77,0.155
1.772,0.295
1.774,0.46
1.776,0.55
1.778,0.515
1.78,0.37
1.782,0.51
1.784,0.435
1.786,0.205
1.788,0.235
1.79,0.225
1.792,0.245
1.794,0.595
1.796,0.54
1.798,0.56
1.8,0.43
1.802,0.5
1.804,0.335
1.806,0.295
1.808,0.335
1.81,0.36
1.812,0.405
1.814,0.435
1.816,0.665
1.818,0.505
1.82,0.52
1.822,0.435
1.824,0.28
1.826,0.235
1.828,0.345
1.83,0.42
1.832,0.46
1.834,0.515
1.836,0.505
1.838,0.64
1.84,0.57
1.842,0.385
1.844,0.405
1.846,0.28
1.848,0.245
1.85,0.41
1.852,0.505
1.854,0.585
1.856,0.685
1.858,0.66
1.86,0.52
1.862,0.56
1.864,0.355
1.866,0.33
1.868,0.43
1.87,0.38
1.872,0.4
1.874,0.675
1.876,0.56
1.878,0.615
1.88,0.535
1.882,0.455
1.884,0.435
1.886,0.42
1.888,0.405
1.89,0.5
1.892,0.64
1.894,0.77
1.896,0.71
1.898,0.665
1.9,0.61
1.902,0.575
1.904,0.44
1.906,0.52
1.908,0.565
1.91,0.585
1.912,0.725
1.914,0.895
1.916,0.825
1.918,0.845
1.92,0.795
1.922,0.645
1.924,0.585
1.926,0.56
1.928,0.6
1.93,0.545
1.932,0.715
1.934,0.9
1.936,0.955
1.938,0.655
1.94,0.77
1.942,0.755
1.944,0.66
1.946,0.595
1.948,0.55
1.95,0.525
1.952,0.625
1.954,0.815
1.956,0.79
1.958,0.73
1.96,0.5
1.962,0.48
1.964,0.435
1.966,0.4
1.968,0.4
1.97,0.54
1.972,0.56
1.974,0.655
1.976,0.66
1.978,0.64
1.98,0.595
1.982,0.49
1.984,0.35
1.986,0.37
1.988,0.415
1.99,0.5
1.992,0.465
1.994,0.735
1.996,0.67
1.998,0.6
2,0.51
2.002,0.47
2.004,0.335
2.006,0.31
2.008,0.355
2.01,0.315
2.012,0.615
2.014,0.69
2.016,0.615
2.018,0.485
2.02,0.58
2.022,0.485
2.024,0.275
2.026,0.165
2.028,0.46
2.03,0.55
2.032,0.6
2.034,0.55
2.036,0.61
2.038,0.61
2.04,0.53
2.042,0.565
2.044,0.445
2.046,0.285
2.048,0.365
2.05,0.53
2.052,0.65
2.054,0.67
2.056,0.635
2.058,0.65
2.06,0.575
2.062,0.495
2.064,0.31
2.066,0.3
2.068,0.425
2.07,0.575
2.072,0.68
2.074,0.775
2.076,0.585
2.078,0.52
2.08,0.615
2.082,0.45
2.084,0.38
2.086,0.425
2.088,0.415
2.09,0.575
2.092,0.585
2.094,0.725
2.096,0.705
2.098,0.66
2.1,0.585
2.102,0.51
2.104,0.385
2.106,0.405
2.108,0.425
2.11,0.405
2.112,0.73
2.114,0.765
2.116,0.81
2.118,0.665
2.12,0.545
2.122,0.55
2.124,0.315
2.126,0.29
2.128,0.365
2.13,0.61
2.132,0.74
2.134,0.715
2.136,0.635
2.138,0.57
2.14,0.535
2.142,0.39
2.144,0.3
2.146,0.45
2.148,0.525
2.15,0.535
2.152,0.63
2.154,0.7
2.156,0.715
2.158,0.5
2.16,0.44
2.162,0.4
2.164,0.415
2.166,0.48
2.168,0.525
2.17,0.53
2.172,0.58
2.174,0.615
2.176,0.64
2.178,0.59
2.18,0.54
2.182,0.28
2.184,0.35
2.186,0.465
2.188,0.575
2.19,0.735
2.192,0.85
2.194,1.075
2.196,1.09
2.198,1.03
2.2,1.02
2.202,0.715
2.204,0.645
2.206,0.73
2.208,0.575
2.21,0.58
2.212,0.685
2.214,0.58
2.216,0.29
2.218,0.32
2.22,0.265
2.222,0.175
2.224,0.25
2.226,0.325
2.228,0.39
2.23,0.55
2.232,0.54
2.234,0.52
2.236,0.575
2.238,0.585
2.24,0.425
2.242,0.36
2.244,0.475
2.246,0.52
2.248,0.43
2.25,0.68
2.252,0.71
2.254,0.59
2.256,0.62
2.258,0.545
2.26,0.505
2.262,0.33
2.264,0.31
2.266,0.45
2.268,0.53
2.27,0.505
2.272,0.645
2.274,0.66
2.276,0.59
2.278,0.625
2.28,0.69
2.282,0.425
2.284,0.305
2.286,0.44
2.288,0.6
2.29,0.62
2.292,0.655
2.294,0.69
2.296,0.64
2.298,0.565
2.3,0.495
2.302,0.385
2.304,0.365
2.306,0.515
2.308,0.505
2.31,0.505
2.312,0.655
2.314,0.755
2.316,0.61
2.318,0.565
2.32,0.61
2.322,0.335
2.324,0.485
2.326,0.555
2.328,0.54
2.33,0.61
2.332,0.665
2.334,0.715
2.336,0.67
2.338,0.655
2.34,0.48
2.342,0.51
2.344,0.49
2.346,0.6
2.348,0.56
2.35,0.665
2.352,0.865
2.354,0.805
2.356,0.765
2.358,0.745
2.36,0.67
2.362,0.625
2.364,0.67
2.366,0.735
2.368,0.68
2.37,0.705
2.372,0.85
2.374,0.925
2.376,0.925
2.378,0.78
2.38,0.73
2.382,0.61
2.384,0.66
2.386,0.705
2.388,0.73
2.39,0.895
2.392,1.04
2.394,1.015
2.396,0.83
2.398,0.85
2.4,0.735
2.402,0.575
2.404,0.63
2.406,0.66
2.408,0.605
2.41,0.805
2.412,0.86
2.414,0.95
2.416,0.79
2.418,0.595
2.42,0.575
2.422,0.29
2.424,0.405
2.426,0.53
2.428,0.59
2.43,0.695
2.432,0.78
2.434,0.72
2.436,0.635
2.438,0.51
2.44,0.52
2.442,0.39
2.444,0.385
2.446,0.51
2.448,0.48
2.45,0.585
2.452,0.695
2.454,0.765
2.456,0.64
2.458,0.605
2.46,0.47
2.462,0.34
2.464,0.315
2.466,0.465
2.468,0.51
2.47,0.635
2.472,0.68
2.474,0.755
2.476,0.67
2.478,0.53
2.48,0.375
2.482,0.31
2.484,0.445
2.486,0.4
2.488,0.625
2.49,0.86
2.492,0.745
2.494,0.695
2.496,0.555
2.498,0.535
2.5,0.46
2.502,0.325
2.504,0.345
2.506,0.43
2.508,0.47
2.51,0.69
2.512,0.7
2.514,0.595
2.516,0.595
2.518,0.65
2.52,0.405
2.522,0.49
2.524,0.495
2.526,0.515
2.528,0.53
2.53,0.625
2.532,0.575
2.534,0.75
2.536,0.57
2.538,0.475
2.54,0.51
2.542,0.59
2.544,0.505
2.546,0.515
2.548,0.625
2.55,0.865
2.552,0.75
2.554,0.7
2.556,0.655
2.558,0.555
2.56,0.41
2.562,0.42
2.564,0.535
2.566,0.72
2.568,0.61
2.57,0.695
2.572,0.695
2.574,0.665
2.576,0.595
2.578,0.57
2.58,0.44
2.582,0.335
2.584,0.325
2.586,0.59
2.588,0.6
2.59,0.63
2.592,0.56
2.594,0.61
2.596,0.5
2.598,0.535
2.6,0.455
2.602,0.29
2.604,0.49
2.606,0.605
2.608,0.565
2.61,0.685
2.612,0.825
2.614,0.6
2.616,0.525
2.618,0.47
2.62,0.38
2.622,0.33
2.624,0.49
2.626,0.455
2.628,0.715
2.63,0.635
2.632,0.77
2.634,0.68
2.636,0.545
2.638,0.53
2.64,0.445
2.642,0.41
2.644,0.8
2.646,0.86
2.648,1.005
2.65,1.145
2.652,1.07
2.654,0.91
2.656,0.76
2.658,0.595
2.66,0.52
2.662,0.48
2.664,0.455
2.666,0.355
2.668,0.335
2.67,0.55
2.672,0.475
2.674,0.555
2.676,0.475
2.678,0.485
2.68,0.295
2.682,0.37
2.684,0.425
2.686,0.585
2.688,0.685
2.69,0.58
2.692,0.625
2.694,0.6
2.696,0.5
2.698,0.325
2.7,0.36
2.702,0.445
2.704,0.47
2.706,0.5
2.708,0.615
2.71,0.75
2.712,0.635
2.714,0.635
2.716,0.55
2.718,0.395
2.72,0.515
2.722,0.47
2.724,0.4
2.726,0.565
2.728,0.635
2.73,0.76
2.732,0.7
2.734,0.69
2.736,0.55
2.738,0.43
2.74,0.385
2.742,0.405
2.744,0.5
2.746,0.51
2.748,0.585
2.75,0.695
2.752,0.69
2.754,0.67
2.756,0.54
2.758,0.43
2.76,0.435
2.762,0.455
2.764,0.515
2.766,0.665
2.768,0.715
2.77,0.81
2.772,0.715
2.774,0.67
2.776,0.555
2.778,0.46
2.78,0.485
2.782,0.44
2.784,0.555
2.786,0.57
2.788,0.73
2.79,0.815
2.792,0.72
2.794,0.635
2.796,0.585
2.798,0.52
2.8,0.515
2.802,0.685
2.804,0.615
2.806,0.72
2.808,0.825
2.81,0.845
2.812,0.83
2.814,0.695
2.816,0.675
2.818,0.54
2.82,0.68
2.822,0.59
2.824,0.8
2.826,0.8
2.828,0.815
2.83,0.91
2.832,0.915
2.834,0.795
2.836,0.695
2.838,0.62
2.84,0.67
2.842,0.68
2.844,0.61
2.846,0.86
2.848,0.96
2.85,1.035
2.852,0.88
2.854,0.775
2.856,0.785
2.858,0.615
2.86,0.62
2.862,0.525
2.864,0.675
2.866,0.7
2.868,0.82
2.87,0.805
2.872,0.71
2.874,0.645
2.876,0.525
2.878,0.42
2.88,0.465
2.882,0.51
2.884,0.52
2.886,0.555
2.888,0.73
2.89,0.68
2.892,0.68
2.894,0.55
2.896,0.44
2.898,0.42
2.9,0.335
2.902,0.285
2.904,0.61
2.906,0.59
2.908,0.71
2.91,0.695
2.912,0.7
2.914,0.54
2.916,0.46
2.918,0.35
2.92,0.435
2.922,0.52
2.924,0.395
2.926,0.475
2.928,0.655
2.93,0.735
2.932,0.715
2.934,0.57
2.936,0.53
2.938,0.395
2.94,0.35
2.942,0.375
2.944,0.415
2.946,0.495
2.948,0.67
2.95,0.675
2.952,0.68
2.954,0.555
2.956,0.51
2.958,0.415
2.96,0.47
2.962,0.385
2.964,0.605
2.966,0.48
2.968,0.8
2.97,0.67
2.972,0.665
2.974,0.67
2.976,0.51
2.978,0.34
2.98,0.42
2.982,0.415
2.984,0.51
2.986,0.535
2.988,0.655
2.99,0.73
2.992,0.655
2.994,0.565
2.996,0.565
2.998,0.42
3,0.415
3.002,0.565
3.004,0.55
3.006,0.63
3.008,0.76
3.01,0.735
3.012,0.625
3.014,0.57
3.016,0.47
3.018,0.475
3.02,0.505
3.022,0.455
3.024,0.58
3.026,0.69
3.028,0.7
3.03,0.495
3.032,0.52
3.034,0.485
3.036,0.485
3.038,0.34
3.04,0.46
3.042,0.46
3.044,0.515
3.046,0.675
3.048,0.57
3.05,0.57
3.052,0.64
3.054,0.5
3.056,0.445
3.058,0.41
3.06,0.395
3.062,0.48
3.064,0.54
3.066,0.585
3.068,0.62
3.07,0.565
3.072,0.615
3.074,0.56
3.076,0.47
3.078,0.405
3.08,0.405
3.082,0.56
3.084,0.505
3.086,0.685
3.088,0.625
3.09,0.585
3.092,0.595
3.094,0.7
3.096,0.585
3.098,0.685
3.1,0.79
3.102,0.75
3.104,0.72
3.106,0.695
3.108,0.775
3.11,0.72
3.112,0.52
3.114,0.595
3.116,0.345
3.118,0.225
3.12,0.14
3.122,0.265
3.124,0.395
3.126,0.5
3.128,0.535
3.13,0.61
3.132,0.56
3.134,0.5
3.136,0.29
3.138,0.355
3.14,0.335
3.142,0.435
3.144,0.475
3.146,0.59
3.148,0.63
3.15,0.67
3.152,0.61
3.154,0.535
3.156,0.31
3.158,0.29
3.16,0.34
3.162,0.45
3.164,0.545
3.166,0.705
3.168,0.695
3.17,0.6
3.172,0.5
3.174,0.45
3.176,0.53
3.178,0.465
3.18,0.365
3.182,0.415
3.184,0.51
3.186,0.675
3.188,0.755
3.19,0.705
3.192,0.555
3.194,0.485
3.196,0.355
3.198,0.355
3.2,0.41
3.202,0.45
3.204,0.575
3.206,0.715
3.208,0.71
3.21,0.625
3.212,0.55
3.214,0.505
3.216,0.195
3.218,0.31
3.22,0.555
3.222,0.605
3.224,0.615
3.226,0.8
3.228,0.755
3.23,0.64
3.232,0.525
3.234,0.565
3.236,0.415
3.238,0.5
3.24,0.48
3.242,0.565
3.244,0.555
3.246,0.78
3.248,0.82
3.25,0.655
3.252,0.565
3.254,0.63
3.256,0.465
3.258,0.435
3.26,0.55
3.262,0.72
3.264,0.845
3.266,0.86
3.268,0.795
3.27,0.765
3.272,0.875
3.274,0.67
3.276,0.445
3.278,0.43
3.28,0.575
3.282,0.675
3.284,0.865
3.286,0.905
3.288,0.89
3.29,0.86
3.292,0.705
3.294,0.64
3.296,0.49
3.298,0.56
3.3,0.675
3.302,0.695
3.304,0.76
3.306,0.91
3.308,0.795
3.31,0.655
3.312,0.65
3.314,0.555
3.316,0.365
3.318,0.42
3.32,0.555
3.322,0.545
3.324,0.645
3.326,0.81
3.328,0.765
3.33,0.57
3.332,0.43
3.334,0.525
3.336,0.34
3.338,0.42
3.34,0.44
3.342,0.535
3.344,0.585
3.346,0.61
3.348,0.62
3.35,0.615
3.352,0.475
3.354,0.43
3.356,0.39
3.358,0.42
3.36,0.515
3.362,0.515
3.364,0.59
3.366,0.64
3.368,0.615
3.37,0.53
3.372,0.44
3.374,0.32
3.376,0.325
3.378,0.385
3.38,0.36
3.382,0.485
3.384,0.59
3.386,0.605
3.388,0.52
3.39,0.52
3.392,0.44
3.394,0.32
3.396,0.375
3.398,0.425
3.4,0.495
3.402,0.575
3.404,0.535
3.406,0.62
3.408,0.625
3.41,0.58
3.412,0.48
3.414,0.425
3.416,0.325
3.418,0.385
3.42,0.345
3.422,0.44
3.424,0.655
3.426,0.73
3.428,0.64
3.43,0.57
3.432,0.485
3.434,0.345
3.436,0.34
3.438,0.475
3.44,0.475
3.442,0.45
3.444,0.7
3.446,0.66
3.448,0.665
3.45,0.39
3.452,0.385
3.454,0.415
3.456,0.44
3.458,0.365
3.46,0.515
3.462,0.575
3.464,0.66
3.466,0.645
3.468,0.59
3.47,0.565
3.472,0.5
3.474,0.395
3.476,0.325
3.478,0.365
3.48,0.425
3.482,0.505
3.484,0.685
3.486,0.665
3.488,0.605
3.49,0.425
3.492,0.45
3.494,0.335
3.496,0.26
3.498,0.305
3.5,0.505
3.502,0.495
3.504,0.6
3.506,0.595
3.508,0.63
3.51,0.475
3.512,0.435
3.514,0.22
3.516,0.31
3.518,0.35
3.52,0.445
3.522,0.605
3.524,0.53
3.526,0.775
3.528,0.65
3.53,0.495
3.532,0.43
3.534,0.275
3.536,0.285
3.538,0.415
3.54,0.505
3.542,0.465
3.544,0.73
3.546,0.81
3.548,0.795
3.55,0.665
3.552,0.605
3.554,0.33
3.556,0.37
3.558,0.39
3.56,0.615
3.562,0.45
3.564,0.55
3.566,0.47
3.568,0.39
3.57,0.42
3.572,0.29
3.574,0.22
3.576,0.215
3.578,0.325
3.58,0.395
3.582,0.5
3.584,0.625
3.586,0.535
3.588,0.42
3.59,0.445
3.592,0.41
3.594,0.315
3.596,0.305
3.598,0.325
3.6,0.46
3.602,0.535
3.604,0.69
3.606,0.595
3.608,0.605
3.61,0.545
3.612,0.335
3.614,0.235
3.616,0.235
3.618,0.395
3.62,0.535
3.622,0.565
3.624,0.695
3.626,0.61
3.628,0.49
3.63,0.415
3.632,0.37
3.634,0.19
3.636,0.365
3.638,0.465
3.64,0.53
3.642,0.52
3.644,0.675
3.646,0.615
3.648,0.435
3.65,0.47
3.652,0.46
3.654,0.34
3.656,0.405
3.658,0.445
3.66,0.49
3.662,0.645
3.664,0.64
3.666,0.65
3.668,0.555
3.67,0.43
3.672,0.38
3.674,0.315
3.676,0.35
3.678,0.5
3.68,0.495
3.682,0.545
3.684,0.65
3.686,0.415
3.688,0.645
3.69,0.52
3.692,0.455
3.694,0.415
3.696,0.43
3.698,0.415
3.7,0.525
3.702,0.725
3.704,0.75
3.706,0.755
3.708,0.63
3.71,0.605
3.712,0.465
3.714,0.48
3.716,0.425
3.718,0.55
3.72,0.7
3.722,0.665
3.724,0.75
3.726,0.755
3.728,0.74
3.73,0.665
3.732,0.5
3.734,0.555
3.736,0.545
3.738,0.59
3.74,0.735
3.742,0.845
3.744,0.785
3.746,0.76
3.748,0.655
3.75,0.445
3.752,0.43
3.754,0.515
3.756,0.54
3.758,0.675
3.76,0.65
3.762,0.765
3.764,0.685
3.766,0.7
3.768,0.57
3.77,0.46
3.772,0.33
3.774,0.37
3.776,0.375
3.778,0.485
3.78,0.56
3.782,0.565
3.784,0.655
3.786,0.595
3.788,0.475
3.79,0.48
3.792,0.195
3.794,0.43
3.796,0.425
3.798,0.335
3.8,0.42
3.802,0.595
3.804,0.58
3.806,0.63
3.808,0.45
3.81,0.42
3.812,0.345
3.814,0.29
3.816,0.34
3.818,0.47
3.82,0.43
3.822,0.61
3.824,0.505
3.826,0.505
3.828,0.515
3.83,0.315
3.832,0.29
3.834,0.205
3.836,0.34
3.838,0.465
3.84,0.555
3.842,0.69
3.844,0.61
3.846,0.55
3.848,0.495
3.85,0.485
3.852,0.28
3.854,0.225
3.856,0.325
3.858,0.445
3.86,0.535
3.862,0.68
3.864,0.61
3.866,0.555
3.868,0.495
3.87,0.41
3.872,0.285
3.874,0.305
3.876,0.335
3.878,0.48
3.88,0.505
3.882,0.56
3.884,0.625
3.886,0.435
3.888,0.56
3.89,0.415
3.892,0.17
3.894,0.2
3.896,0.475
3.898,0.425
3.9,0.5
3.902,0.66
3.904,0.71
3.906,0.565
3.908,0.49
3.91,0.42
3.912,0.385
3.914,0.315
3.916,0.39
3.918,0.48
3.92,0.56
3.922,0.64
3.924,0.585
3.926,0.49
3.928,0.49
3.93,0.34
3.932,0.235
3.934,0.17
3.936,0.355
3.938,0.515
3.94,0.495
3.942,0.65
3.944,0.51
3.946,0.48
3.948,0.475
3.95,0.33
3.952,0.245
3.954,0.215
3.956,0.38
3.958,0.42
3.96,0.455
3.962,0.475
3.964,0.61
3.966,0.565
3.968,0.38
3.97,0.345
3.972,0.31
3.974,0.255
3.976,0.415
3.978,0.44
3.98,0.555
3.982,0.715
3.984,0.595
3.986,0.38
3.988,0.425
3.99,0.335
3.992,0.345
3.994,0.605
3.996,0.655
3.998,0.7
4,0.725
4.002,0.69
4.004,0.555
4.006,0.5
4.008,0.39
4.01,0.24
4.012,0.185
4.014,0.13
4.016,0.16
4.018,0.205
4.02,0.375
4.022,0.45
4.024,0.5
4.026,0.375
4.028,0.225
4.03,0.165
4.032,0.175
4.034,0.305
4.036,0.455
4.038,0.375
4.04,0.55
4.042,0.585
4.044,0.605
4.046,0.38
4.048,0.39
4.05,0.21
4.052,0.175
4.054,0.315
4.056,0.42
4.058,0.395
4.06,0.55
4.062,0.655
4.064,0.505
4.066,0.475
4.068,0.405
4.07,0.225
4.072,0.285
4.074,0.21
4.076,0.45
4.078,0.53
4.08,0.56
4.082,0.52
4.084,0.555
4.086,0.465
4.088,0.34
4.09,0.145
4.092,0.28
4.094,0.325
4.096,0.29
4.098,0.355
4.1,0.65
4.102,0.575
4.104,0.615
4.106,0.5
4.108,0.42
4.11,0.245
4.112,0.37
4.114,0.3
4.116,0.365
4.118,0.36
4.12,0.48
4.122,0.625
4.124,0.555
4.126,0.455
4.128,0.445
4.13,0.295
4.132,0.35
4.134,0.38
4.136,0.46
4.138,0.505
4.14,0.655
4.142,0.71
4.144,0.53
4.146,0.435
4.148,0.47
4.15,0.265
4.152,0.325
4.154,0.395
4.156,0.51
4.158,0.61
4.16,0.77
4.162,0.765
4.164,0.575
4.166,0.505
4.168,0.45
4.17,0.415
4.172,0.41
4.174,0.555
4.176,0.615
4.178,0.62
4.18,0.73
4.182,0.72
4.184,0.715
4.186,0.61
4.188,0.5
4.19,0.375
4.192,0.405
4.194,0.5
4.196,0.585
4.198,0.6
4.2,0.66
4.202,0.745
4.204,0.585
4.206,0.44
4.208,0.365
4.21,0.255
4.212,0.38
4.214,0.35
4.216,0.425
4.218,0.5
4.22,0.645
4.222,0.605
4.224,0.535
4.226,0.495
4.228,0.3
4.23,0.215
4.232,0.165
4.234,0.165
4.236,0.4
4.238,0.465
4.24,0.59
4.242,0.545
4.244,0.455
4.246,0.39
4.248,0.265
4.25,0.15
4.252,0.325
4.254,0.35
4.256,0.355
4.258,0.51
4.26,0.515
4.262,0.395
4.264,0.43
4.266,0.355
4.268,0.36
4.27,0.31
4.272,0.235
4.274,0.295
4.276,0.28
4.278,0.35
4.28,0.535
4.282,0.505
4.284,0.41
4.286,0.295
4.288,0.145
4.29,0.295
4.292,0.285
4.294,0.32
4.296,0.43
4.298,0.415
4.3,0.48
4.302,0.56
4.304,0.375
4.306,0.195
4.308,0.245
4.31,0.345
4.312,0.285
4.314,0.3
4.316,0.365
4.318,0.455
4.32,0.625
4.322,0.66
4.324,0.425
4.326,0.27
4.328,0.175
4.33,0.165
4.332,0.275
4.334,0.33
4.336,0.475
4.338,0.58
4.34,0.555
4.342,0.4
4.344,0.43
4.346,0.47
4.348,0.255
4.35,0.27
4.352,0.215
4.354,0.365
4.356,0.45
4.358,0.6
4.36,0.57
4.362,0.49
4.364,0.265
4.366,0.35
4.368,0.325
4.37,0.3
4.372,0.29
4.374,0.405
4.376,0.38
4.378,0.545
4.38,0.52
4.382,0.57
4.384,0.34
4.386,0.3
4.388,0.165
4.39,0.26
4.392,0.19
4.394,0.32
4.396,0.34
4.398,0.545
4.4,0.55
4.402,0.55
4.404,0.4
4.406,0.435
4.408,0.16
4.41,0.09
4.412,0.145
4.414,0.4
4.416,0.36
4.418,0.545
4.42,0.49
4.422,0.48
4.424,0.445
4.426,0.335
4.428,0.255
4.43,0.21
4.432,0.175
4.434,0.4
4.436,0.41
4.438,0.585
4.44,0.545
4.442,0.785
4.444,0.7
4.446,0.42
4.448,0.27
4.45,0.355
4.452,0.32
4.454,0.41
4.456,0.415
4.458,0.5
4.46,0.455
4.462,0.29
4.464,0.105
4.466,0.08
4.468,0
4.47,0.14
4.472,0.275
4.474,0.28
4.476,0.325
4.478,0.46
4.48,0.51
4.482,0.46
4.484,0.285
4.486,0.28
4.488,0.2
4.49,0.215
4.492,0.3
4.494,0.345
4.496,0.37
4.498,0.57
4.5,0.49
4.502,0.435
4.504,0.34
4.506,0.29
4.508,0.135
4.51,0.215
4.512,0.155
4.514,0.36
4.516,0.465
4.518,0.59
4.52,0.505
4.522,0.445
4.524,0.53
4.526,0.34
4.528,0.17
4.53,0.28
4.532,0.375
4.534,0.385
4.536,0.44
4.538,0.51
4.54,0.48
4.542,0.49
4.544,0.465
4.546,0.315
4.548,0.25
4.55,0.275
4.552,0.26
4.554,0.385
4.556,0.55
4.558,0.58
4.56,0.55
4.562,0.465
4.564,0.375
4.566,0.275
4.568,0.19
4.57,0.24
4.572,0.235
4.574,0.475
4.576,0.54
4.578,0.62
4.58,0.585
4.582,0.515
4.584,0.44
4.586,0.38
4.588,0.11
4.59,0.35
4.592,0.505
4.594,0.48
4.596,0.64
4.598,0.66
4.6,0.65
4.602,0.605
4.604,0.415
4.606,0.4
4.608,0.35
4.61,0.395
4.612,0.495
4.614,0.475
4.616,0.73
4.618,0.845
4.62,0.775
4.622,0.67
4.624,0.47
4.626,0.45
4.628,0.445
4.63,0.55
4.632,0.46
4.634,0.575
4.636,0.735
4.638,0.78
4.64,0.735
4.642,0.545
4.644,0.595
4.646,0.415
4.648,0.49
4.65,0.405
4.652,0.4
4.654,0.545
4.656,0.66
4.658,0.695
4.66,0.7
4.662,0.51
4.664,0.5
4.666,0.195
4.668,0.31
4.67,0.355
4.672,0.315
4.674,0.44
4.676,0.52
4.678,0.5
4.68,0.5
4.682,0.505
4.684,0.345
4.686,0.17
4.688,0.23
4.69,0.31
4.692,0.37
4.694,0.425
4.696,0.68
4.698,0.625
4.7,0.47
4.702,0.33
4.704,0.305
4.706,0.22
4.708,0.24
4.71,0.365
4.712,0.325
4.714,0.345
4.716,0.525
4.718,0.515
4.72,0.435
4.722,0.375
4.724,0.385
4.726,0.27
4.728,0.205
4.73,0.275
4.732,0.45
4.734,0.4
4.736,0.61
4.738,0.515
4.74,0.51
4.742,0.44
4.744,0.31
4.746,0.26
4.748,0.18
4.75,0.145
4.752,0.3
4.754,0.45
4.756,0.58
4.758,0.58
4.76,0.6
4.762,0.445
4.764,0.37
4.766,0.245
4.768,0.225
4.77,0.295
4.772,0.43
4.774,0.46
4.776,0.565
4.778,0.63
4.78,0.34
4.782,0.36
4.784,0.29
4.786,0.2
4.788,0.195
4.79,0.285
4.792,0.36
4.794,0.435
4.796,0.7
4.798,0.585
4.8,0.48
4.802,0.47
4.804,0.405
4.806,0.37
4.808,0.305
4.81,0.345
4.812,0.39
4.814,0.49
4.816,0.57
4.818,0.62
4.82,0.555
4.822,0.43
4.824,0.325
4.826,0.27
4.828,0.205
4.83,0.27
4.832,0.41
4.834,0.53
4.836,0.555
4.838,0.49
4.84,0.425
4.842,0.34
4.844,0.305
4.846,0.09
4.848,0.23
4.85,0.33
4.852,0.4
4.854,0.47
4.856,0.445
4.858,0.52
4.86,0.43
4.862,0.405
4.864,0.205
4.866,0.22
4.868,0.14
4.87,0.265
4.872,0.435
4.874,0.59
4.876,0.62
4.878,0.495
4.88,0.485
4.882,0.445
4.884,0.37
4.886,0.255
4.888,0.35
4.89,0.445
4.892,0.61
4.894,0.725
4.896,0.695
4.898,0.59
4.9,0.47
4.902,0.38
4.904,0.285
4.906,0.08
4.908,0.19
4.91,0.255
4.912,0.18
4.914,0.29
4.916,0.32
4.918,0.31
4.92,0.34
4.922,0.18
4.924,0.135
4.926,0.275
4.928,0.21
4.93,0.375
4.932,0.37
4.934,0.445
4.936,0.64
4.938,0.415
4.94,0.275
4.942,0.355
4.944,0.345
4.946,0.155
4.948,0.235
4.95,0.275
4.952,0.31
4.954,0.565
4.956,0.51
4.958,0.445
4.96,0.465
4.962,0.365
4.964,0.215
4.966,0.265
4.968,0.27
4.97,0.265
4.972,0.36
4.974,0.61
4.976,0.65
4.978,0.565
4.98,0.385
4.982,0.41
4.984,0.2
4.986,0.235
4.988,0.28
4.99,0.35
4.992,0.48
4.994,0.53
4.996,0.45
4.998,0.465
5,0.455
5.002,0.405
5.004,0.175
5.006,0.24
5.008,0.25
5.01,0.35
5.012,0.385
5.014,0.45
5.016,0.465
5.018,0.525
5.02,0.39
5.022,0.385
5.024,0.335
5.026,0.21
5.028,0.38
5.03,0.37
5.032,0.47
5.034,0.64
5.036,0.69
5.038,0.585
5.04,0.5
5.042,0.415
5.044,0.285
5.046,0.295
5.048,0.385
5.05,0.47
5.052,0.485
5.054,0.71
5.056,0.695
5.058,0.62
5.06,0.595
5.062,0.5
5.064,0.26
5.066,0.305
5.068,0.46
5.07,0.53
5.072,0.68
5.074,0.75
5.076,0.815
5.078,0.64
5.08,0.555
5.082,0.51
5.084,0.53
5.086,0.455
5.088,0.43
5.09,0.535
5.092,0.615
5.094,0.75
5.096,0.735
5.098,0.625
5.1,0.565
5.102,0.385
5.104,0.26
5.106,0.28
5.108,0.445
5.11,0.5
5.112,0.515
5.114,0.53
5.116,0.655
5.118,0.495
5.12,0.37
5.122,0.265
5.124,0.21
5.126,0.23
5.128,0.315
5.13,0.225
5.132,0.37
5.134,0.46
5.136,0.53
5.138,0.41
5.14,0.505
5.142,0.34
5.144,0.1
5.146,0.13
5.148,0.32
5.15,0.36
5.152,0.545
5.154,0.64
5.156,0.505
5.158,0.365
5.16,0.41
5.162,0.275
5.164,0.21
5.166,0.225
5.168,0.34
5.17,0.36
5.172,0.415
5.174,0.55
5.176,0.455
5.178,0.35
5.18,0.4
5.182,0.205
5.184,0.15
5.186,0.085
5.188,0.255
5.19,0.305
5.192,0.47
5.194,0.47
5.196,0.505
5.198,0.4
5.2,0.335
5.202,0.155
5.204,0.005
5.206,0.13
5.208,0.46
5.21,0.45
5.212,0.535
5.214,0.53
5.216,0.545
5.218,0.41
5.22,0.355
5.222,0.255
5.224,0.225
5.226,0.11
5.228,0.355
5.23,0.445
5.232,0.585
5.234,0.555
5.236,0.57
5.238,0.51
5.24,0.365
5.242,0.17
5.244,0.16
5.246,0.105
5.248,0.26
5.25,0.435
5.252,0.44
5.254,0.485
5.256,0.495
5.258,0.57
5.26,0.35
5.262,0.29
5.264,0.28
5.266,0.215
5.268,0.4
5.27,0.38
5.272,0.475
5.274,0.485
5.276,0.5
5.278,0.45
5.28,0.37
5.282,0.16
5.284,0.195
5.286,0.205
5.288,0.32
5.29,0.38
5.292,0.545
5.294,0.56
5.296,0.42
5.298,0.395
5.3,0.305
5.302,-0.015
5.304,0.275
5.306,0.22
5.308,0.235
5.31,0.37
5.312,0.555
5.314,0.44
5.316,0.425
5.318,0.41
5.32,0.29
5.322,0.095
5.324,0.025
5.326,0.22
5.328,0.22
5.33,0.41
5.332,0.55
5.334,0.585
5.336,0.415
5.338,0.375
5.34,0.335
5.342,0.175
5.344,0.235
5.346,0.37
5.348,0.445
5.35,0.56
5.352,0.725
5.354,0.605
5.356,0.49
5.358,0.35
5.36,0.285
5.362,0.1
5.364,0.11
5.366,0.255
5.368,0.3
5.37,0.305
5.372,0.32
5.374,0.27
5.376,0.235
5.378,0.275
5.38,0.22
5.382,0.1
5.384,0.1
5.386,0.195
5.388,0.17
5.39,0.415
5.392,0.58
5.394,0.56
5.396,0.33
5.398,0.295
5.4,0.29
5.402,0.235
5.404,0.04
5.406,0.175
5.408,0.355
5.41,0.435
5.412,0.525
5.414,0.43
5.416,0.38
5.418,0.315
5.42,0.325
5.422,0.19
5.424,0.18
5.426,0.34
5.428,0.34
5.43,0.22
5.432,0.475
5.434,0.515
5.436,0.47
5.438,0.295
5.44,0.265
5.442,0.145
5.444,0.21
5.446,0.215
5.448,0.33
5.45,0.395
5.452,0.51
5.454,0.53
5.456,0.375
5.458,0.33
5.46,0.31
5.462,0.21
5.464,0.085
5.466,0.285
5.468,0.44
5.47,0.585
5.472,0.55
5.474,0.575
5.476,0.51
5.478,0.35
5.48,0.235
5.482,0.235
5.484,0.33
5.486,0.375
5.488,0.38
5.49,0.46
5.492,0.515
5.494,0.6
5.496,0.445
5.498,0.405
5.5,0.3
5.502,0.19
5.504,0.315
5.506,0.3
5.508,0.475
5.51,0.61
5.512,0.64
5.514,0.575
5.516,0.415
5.518,0.43
5.52,0.475
5.522,0.3
5.524,0.345
5.526,0.515
5.528,0.645
5.53,0.695
5.532,0.715
5.534,0.66
5.536,0.565
5.538,0.48
5.54,0.375
5.542,0.45
5.544,0.485
5.546,0.42
5.548,0.525
5.55,0.715
5.552,0.74
5.554,0.685
5.556,0.55
5.558,0.505
5.56,0.395
5.562,0.29
5.564,0.265
5.566,0.37
5.568,0.455
5.57,0.53
5.572,0.58
5.574,0.42
5.576,0.475
5.578,0.445
5.58,0.29
5.582,0.22
5.584,0.26
5.586,0.395
5.588,0.265
5.59,0.55
5.592,0.67
5.594,0.51
5.596,0.36
5.598,0.3
5.6,0.16
5.602,0.21
5.604,0.25
5.606,0.24
5.608,0.33
5.61,0.455
5.612,0.525
5.614,0.555
5.616,0.43
5.618,0.33
5.62,0.15
5.622,0.075
5.624,0.19
5.626,0.24
5.628,0.39
5.63,0.515
5.632,0.525
5.634,0.485
5.636,0.3
5.638,0.165
5.64,0.06
5.642,0.2
5.644,0.26
5.646,0.29
5.648,0.32
5.65,0.515
5.652,0.48
5.654,0.515
5.656,0.34
5.658,0.38
5.66,0.215
5.662,0.205
5.664,0.225
5.666,0.385
5.668,0.38
5.67,0.46
5.672,0.535
5.674,0.515
5.676,0.32
5.678,0.255
5.68,0.25
5.682,0.12
5.684,0.265
5.686,0.305
5.688,0.395
5.69,0.49
5.692,0.3
5.694,0.49
5.696,0.455
5.698,0.355
5.7,0.215
5.702,0.195
5.704,0.33
5.706,0.435
5.708,0.265
5.71,0.495
5.712,0.525
5.714,0.495
5.716,0.39
5.718,0.43
5.72,0.185
5.722,0.195
5.724,0.285
5.726,0.405
5.728,0.47
5.73,0.44
5.732,0.52
5.734,0.465
5.736,0.41
5.738,0.275
5.74,0.1
5.742,0.305
5.744,0.35
5.746,0.42
5.748,0.525
5.75,0.545
5.752,0.49
5.754,0.355
5.756,0.345
5.758,0.22
5.76,0.21
5.762,0.21
5.764,0.22
5.766,0.4
5.768,0.5
5.77,0.58
5.772,0.345
5.774,0.35
5.776,0.315
5.778,0.2
5.78,0.26
5.782,0.21
5.784,0.215
5.786,0.335
5.788,0.425
5.79,0.51
5.792,0.485
5.794,0.41
5.796,0.195
5.798,0.295
5.8,0.125
5.802,0.155
5.804,0.32
5.806,0.415
5.808,0.45
5.81,0.4
5.812,0.4
5.814,0.53
5.816,0.42
5.818,0.31
5.82,0.36
5.822,0.435
5.824,0.435
5.826,0.25
5.828,0.485
5.83,0.465
5.832,0.485
5.834,0.375
5.836,0.32
5.838,0.17
5.84,0.015
5.842,0.06
5.844,0.125
5.846,0.23
5.848,0.39
5.85,0.435
5.852,0.43
5.854,0.4
5.856,0.325
5.858,0.15
5.86,0.155
5.862,0.17
5.864,0.205
5.866,0.265
5.868,0.56
5.87,0.455
5.872,0.44
5.874,0.3
5.876,0.3
5.878,0.16
5.88,0.105
5.882,0.295
5.884,0.215
5.886,0.3
5.888,0.49
5.89,0.575
5.892,0.475
5.894,0.39
5.896,0.155
5.898,0.085
5.9,0.26
5.902,0.27
5.904,0.335
5.906,0.465
5.908,0.54
5.91,0.43
5.912,0.45
5.914,0.435
5.916,0.205
5.918,0.185
5.92,0.22
5.922,0.27
5.924,0.32
5.926,0.375
5.928,0.525
5.93,0.485
5.932,0.475
5.934,0.38
5.936,0.34
5.938,0.27
5.94,0.025
5.942,0.28
5.944,0.345
5.946,0.515
5.948,0.525
5.95,0.55
5.952,0.425
5.954,0.43
5.956,0.355
5.958,0.24
5.96,0.295
5.962,0.145
5.964,0.3
5.966,0.565
5.968,0.595
5.97,0.51
5.972,0.445
5.974,0.505
5.976,0.46
5.978,0.31
5.98,0.3
5.982,0.455
5.984,0.485
5.986,0.515
5.988,0.655
5.99,0.535
5.992,0.54
5.994,0.46
5.996,0.465
5.998,0.35
6,0.375
6.002,0.385
6.004,0.55
6.006,0.635
6.008,0.725
6.01,0.715
6.012,0.635
6.014,0.485
6.016,0.425
6.018,0.41
6.02,0.35
6.022,0.505
6.024,0.565
6.026,0.585
6.028,0.735
6.03,0.61
6.032,0.385
6.034,0.43
6.036,0.4
6.038,0.27
6.04,0.33
6.042,0.36
6.044,0.39
6.046,0.465
6.048,0.565
6.05,0.455
6.052,0.475
6.054,0.315
6.056,0.28
6.058,0.145
6.06,0.3
6.062,0.27
6.064,0.37
6.066,0.445
6.068,0.53
6.07,0.49
6.072,0.405
6.074,0.315
6.076,0.195
6.078,0.235
6.08,0.115
6.082,0.315
6.084,0.36
6.086,0.465
6.088,0.515
6.09,0.48
6.092,0.42
6.094,0.27
6.096,0.17
6.098,0.18
6.1,0.19
6.102,0.135
6.104,0.285
6.106,0.41
6.108,0.545
6.11,0.5
6.112,0.42
6.114,0.29
6.116,0.215
6.118,0.205
6.12,0.155
6.122,0.26
6.124,0.35
6.126,0.525
6.128,0.41
6.13,0.41
6.132,0.41
6.134,0.335
6.136,0.175
6.138,0.22
6.14,0.195
6.142,0.345
6.144,0.16
6.146,0.435
6.148,0.6
6.15,0.475
6.152,0.48
6.154,0.325
6.156,0.17
6.158,0.26
6.16,0.16
6.162,0.22
6.164,0.36
6.166,0.43
6.168,0.425
6.17,0.445
6.172,0.435
6.174,0.345
6.176,0.135
6.178,0.205
6.18,0.17
6.182,0.215
6.184,0.34
6.186,0.515
6.188,0.575
6.19,0.49
6.192,0.435
6.194,0.37
6.196,0.205
6.198,0.195
6.2,0.26
6.202,0.23
6.204,0.395
6.206,0.44
6.208,0.45
6.21,0.475
6.212,0.445
6.214,0.37
6.216,0.235
6.218,0.2
6.22,0.26
6.222,0.29
6.224,0.38
6.226,0.59
6.228,0.465
6.23,0.515
6.232,0.28
6.234,0.255
6.236,0.135
6.238,0.23
6.24,0.225
6.242,0.28
6.244,0.38
6.246,0.52
6.248,0.385
6.25,0.455
6.252,0.33
6.254,0.26
6.256,0.14
6.258,0.14
6.26,0.16
6.262,0.31
6.264,0.395
6.266,0.565
6.268,0.485
6.27,0.34
6.272,0.24
6.274,0.235
6.276,0.105
6.278,0.055
6.28,0.175
6.282,0.385
6.284,0.33
6.286,0.635
6.288,0.59
6.29,0.53
6.292,0.455
6.294,0.25
6.296,0.165
6.298,0.215
6.3,0.26
6.302,0.495
6.304,0.69
6.306,0.685
6.308,0.605
6.31,0.395
6.312,0.355
6.314,0.295
6.316,0.125
6.318,0.1
6.32,0.195
6.322,0.185
6.324,0.175
6.326,0.345
6.328,0.325
6.33,0.31
6.332,0.19
6.334,0.16
6.336,0.11
6.338,0.065
6.34,0.2
6.342,0.325
6.344,0.415
6.346,0.52
6.348,0.515
6.35,0.375
6.352,0.285
6.354,0.245
6.356,0.17
6.358,0.14
6.36,0.14
6.362,0.23
6.364,0.435
6.366,0.44
6.368,0.445
6.37,0.385
6.372,0.32
6.374,0.19
6.376,0.12
6.378,0.165
6.38,0.315
6.382,0.33
6.384,0.31
6.386,0.705
6.388,0.57
6.39,0.44
6.392,0.235
6.394,0.145
6.396,0.185
6.398,0.165
6.4,0.175
6.402,0.37
6.404,0.44
6.406,0.52
6.408,0.485
6.41,0.465
6.412,0.34
6.414,0.27
6.416,0.195
6.418,0.19
6.42,0.405
6.422,0.42
6.424,0.475
6.426,0.455
6.428,0.44
6.43,0.505
6.432,0.365
6.434,0.225
6.436,0.24
6.438,0.245
6.44,0.365
6.442,0.46
6.444,0.5
6.446,0.485
6.448,0.43
6.45,0.39
6.452,0.43
6.454,0.345
6.456,0.305
6.458,0.35
6.46,0.445
6.462,0.55
6.464,0.6
6.466,0.6
6.468,0.625
6.47,0.515
6.472,0.505
6.474,0.35
6.476,0.29
6.478,0.425
6.48,0.63
6.482,0.47
6.484,0.57
6.486,0.55
6.488,0.735
6.49,0.58
6.492,0.42
6.494,0.4
6.496,0.44
6.498,0.45
6.5,0.5
6.502,0.6
6.504,0.715
6.506,0.74
6.508,0.62
6.51,0.375
6.512,0.355
6.514,0.325
6.516,0.35
6.518,0.4
6.52,0.46
6.522,0.405
6.524,0.555
6.526,0.605
6.528,0.525
6.53,0.38
6.532,0.44
6.534,0.245
6.536,0.21
6.538,0.27
6.54,0.365
6.542,0.385
6.544,0.475
6.546,0.5
6.548,0.445
6.55,0.335
6.552,0.28
6.554,0.24
6.556,0.045
6.558,0.325
6.56,0.335
6.562,0.315
6.564,0.455
6.566,0.49
6.568,0.44
6.57,0.34
6.572,0.165
6.574,0.085
6.576,0.175
6.578,0.32
6.58,0.345
6.582,0.295
6.584,0.47
6.586,0.46
6.588,0.34
6.59,0.255
6.592,0.32
6.594,0.22
6.596,0.195
6.598,0.15
6.6,0.28
6.602,0.42
6.604,0.525
6.606,0.455
6.608,0.39
6.61,0.27
6.612,0.205
6.614,0.12
6.616,0.175
6.618,0.255
6.62,0.385
6.622,0.33
6.624,0.545
6.626,0.46
6.628,0.41
6.63,0.39
6.632,0.245
6.634,0.18
6.636,0.025
6.638,0.18
6.64,0.23
6.642,0.48
6.644,0.565
6.646,0.505
6.648,0.485
6.65,0.25
6.652,0.24
6.654,0.085
6.656,0.165
6.658,0.3
6.66,0.285
6.662,0.415
6.664,0.44
6.666,0.405
6.668,0.415
6.67,0.225
6.672,0.19
6.674,0.175
6.676,0.085
6.678,0.165
6.68,0.425
6.682,0.405
6.684,0.47
6.686,0.495
6.688,0.4
6.69,0.27
6.692,0.24
6.694,0.235
6.696,0.21
6.698,0.21
6.7,0.37
6.702,0.485
6.704,0.53
6.706,0.47
6.708,0.295
6.71,0.2
6.712,0.31
6.714,0.13
6.716,0.22
6.718,0.27
6.72,0.315
6.722,0.34
6.724,0.455
6.726,0.415
6.728,0.37
6.73,0.21
6.732,0.065
6.734,-0.02
6.736,0.095
6.738,0.265
6.74,0.35
6.742,0.425
6.744,0.39
6.746,0.36
6.748,0.255
6.75,0.255
6.752,0.14
6.754,0.13
6.756,0.19
6.758,0.205
6.76,0.29
6.762,0.345
6.764,0.425
6.766,0.45
6.768,0.3
6.77,0.355
6.772,0.125
6.774,0.145
6.776,0.21
6.778,0.315
6.78,0.365
6.782,0.565
6.784,0.56
6.786,0.55
6.788,0.555
6.79,0.465
6.792,0.21
6.794,0.195
6.796,0.11
6.798,0.295
6.8,0.28
6.802,0.415
6.804,0.185
6.806,0.21
6.808,0.075
6.81,0.005
6.812,-0.02
6.814,-0.03
6.816,0.025
6.818,0.16
6.82,0.255
6.822,0.185
6.824,0.245
6.826,0.465
6.828,0.225
6.83,0.24
6.832,0.095
6.834,0.175
6.836,0.14
6.838,0.225
6.84,0.255
6.842,0.355
6.844,0.375
6.846,0.34
6.848,0.315
6.85,0.285
6.852,0.075
6.854,0.025
6.856,0.095
6.858,0.305
6.86,0.31
6.862,0.45
6.864,0.445
6.866,0.365
6.868,0.285
6.87,0.285
6.872,0.135
6.874,0.07
6.876,0.18
6.878,0.27
6.88,0.365
6.882,0.425
6.884,0.34
6.886,0.36
6.888,0.285
6.89,0.235
6.892,0.08
6.894,0.04
6.896,0.15
6.898,0.235
6.9,0.425
6.902,0.485
6.904,0.395
6.906,0.315
6.908,0.21
6.91,0.24
6.912,0.04
6.914,0.125
6.916,0.155
6.918,0.23
6.92,0.23
6.922,0.43
6.924,0.465
6.926,0.3
6.928,0.28
6.93,0.37
6.932,0.155
6.934,0.2
6.936,0.255
6.938,0.425
6.94,0.385
6.942,0.425
6.944,0.56
6.946,0.485
6.948,0.43
6.95,0.285
6.952,0.2
6.954,0.22
6.956,0.405
6.958,0.45
6.96,0.475
6.962,0.635
6.964,0.56
6.966,0.54
6.968,0.575
6.97,0.315
6.972,0.3
6.974,0.305
6.976,0.3
6.978,0.425
6.98,0.52
6.982,0.535
6.984,0.56
6.986,0.425
6.988,0.325
6.99,0.365
6.992,0.125
6.994,0.22
6.996,0.365
6.998,0.48
7,0.475
7.002,0.475
7.004,0.405
7.006,0.355
7.008,0.355
7.01,0.22
7.012,0.14
7.014,0.12
7.016,0.215
7.018,0.295
7.02,0.3
7.022,0.43
7.024,0.32
7.026,0.29
7.028,0.27
7.03,0.2
7.032,-0.005
7.034,0.065
7.036,0.175
7.038,0.27
7.04,0.335
7.042,0.335
7.044,0.235
7.046,0.195
7.048,0.29
7.05,0.065
7.052,0.08
7.054,-0.02
7.056,0.105
7.058,0.29
7.06,0.33
7.062,0.295
7.064,0.315
7.066,0.215
7.068,0.21
7.07,0.095
7.072,0.055
7.074,0.085
7.076,0.16
7.078,0.23
7.08,0.37
7.082,0.365
7.084,0.28
7.086,0.175
7.088,0.18
7.09,0.045
7.092,0.1
7.094,0.18
7.096,0.155
7.098,0.255
7.1,0.295
7.102,0.315
7.104,0.425
7.106,0.215
7.108,0.13
7.11,-0.02
7.112,-0.01
7.114,0.125
7.116,0.19
7.118,0.305
7.12,0.415
7.122,0.37
7.124,0.295
7.126,0.185
7.128,0.145
7.13,-0.115
7.132,0.15
7.134,0.145
7.136,0.1
7.138,0.145
7.14,0.31
7.142,0.36
7.144,0.36
7.146,0.34
7.148,0.17
7.15,-0.01
7.152,0.04
7.154,0.08
7.156,0.12
7.158,0.2
7.16,0.34
7.162,0.285
7.164,0.445
7.166,0.265
7.168,0.14
7.17,0.155
7.172,0.075
7.174,0.165
7.176,0.17
7.178,0.22
7.18,0.41
7.182,0.345
7.184,0.28
7.186,0.21
7.188,0.22
7.19,0.01
7.192,0.125
7.194,0.195
7.196,0.055
7.198,0.16
7.2,0.285
7.202,0.335
7.204,0.45
7.206,0.21
7.208,0.135
7.21,-0.035
7.212,0.005
7.214,-0.035
7.216,0.12
7.218,0.255
7.22,0.385
7.222,0.245
7.224,0.26
7.226,0.165
7.228,0.19
7.23,0.01
7.232,-0.035
7.234,0.005
7.236,0.15
7.238,0.205
7.24,0.295
7.242,0.23
7.244,0.19
7.246,0.205
7.248,0.2
7.25,0.035
7.252,0.085
7.254,0.13
7.256,0.115
7.258,0.19
7.26,0.375
7.262,0.315
7.264,0.37
7.266,0.345
7.268,0.335
7.27,0.15
7.272,0.22
7.274,0.22
7.276,0.245
7.278,0.25
7.28,0.29
7.282,0.24
7.284,0.185
7.286,0.06
7.288,-0.06
7.29,-0.205
7.292,-0.19
7.294,-0.095
7.296,0.085
7.298,0.23
7.3,0.305
7.302,0.3
7.304,0.17
7.306,0.115
7.308,0.04
7.31,-0.16
7.312,-0.035
7.314,0.105
7.316,0.13
7.318,0.285
7.32,0.33
7.322,0.305
7.324,0.225
7.326,0.165
7.328,-0.04
7.33,-0.025
7.332,0.16
7.334,0.1
7.336,0.185
7.338,0.31
7.34,0.215
7.342,0.275
7.344,0.15
7.346,0.055
7.348,0.06
7.35,-0.02
7.352,0.08
7.354,0.175
7.356,0.105
7.358,0.15
7.36,0.445
7.362,0.335
7.364,0.215
7.366,0.105
7.368,0.12
7.37,-0.02
7.372,0.16
7.374,-0.015
7.376,0.17
7.378,0.37
7.38,0.355
7.382,0.27
7.384,0.195
7.386,0.205
7.388,0.02
7.39,0.005
7.392,0.055
7.394,0.195
7.396,0.25
7.398,0.335
7.4,0.385
7.402,0.37
7.404,0.275
7.406,0.205
7.408,0.07
7.41,0.08
7.412,0.12
7.414,0.145
7.416,0.33
7.418,0.39
7.42,0.43
7.422,0.35
7.424,0.195
7.426,0.27
7.428,0.12
7.43,0.115
7.432,0.145
7.434,0.37
7.436,0.315
7.438,0.475
7.44,0.465
7.442,0.425
7.444,0.335
7.446,0.31
7.448,0.18
7.45,0.24
7.452,0.33
7.454,0.405
7.456,0.44
7.458,0.505
7.46,0.48
7.462,0.45
7.464,0.49
7.466,0.38
7.468,0.27
7.47,0.21
7.472,0.32
7.474,0.295
7.476,0.38
7.478,0.485
7.48,0.48
7.482,0.465
7.484,0.245
7.486,0.14
7.488,0.035
7.49,0.175
7.492,0.21
7.494,0.25
7.496,0.275
7.498,0.35
7.5,0.415
7.502,0.345
7.504,0.22
7.506,0.055
7.508,0.1
7.51,0.015
7.512,0.06
7.514,0.145
7.516,0.165
7.518,0.255
7.52,0.34
7.522,0.28
7.524,0.075
7.526,0.055
7.528,0.13
7.53,-0.005
7.532,0.085
7.534,0.11
7.536,0.26
7.538,0.33
7.54,0.255
7.542,0.19
7.544,0.295
7.546,0.08
7.548,-0.065
7.55,0.03
7.552,0.15
7.554,0.225
7.556,0.26
7.558,0.35
7.56,0.3
7.562,0.305
7.564,0.13
7.566,0.135
7.568,-0.055
7.57,0.07
7.572,0.03
7.574,0.18
7.576,0.225
7.578,0.29
7.58,0.38
7.582,0.335
7.584,0.08
7.586,0.025
7.588,0.05
7.59,-0.025
7.592,0.115
7.594,0.175
7.596,0.26
7.598,0.35
7.6,0.335
7.602,0.245
7.604,0.125
7.606,-0.04
7.608,0.015
7.61,0.06
7.612,0.245
7.614,0.105
7.616,0.265
7.618,0.26
7.62,0.465
7.622,0.285
7.624,0.18
7.626,0.04
7.628,0.135
7.63,0.025
7.632,0.17
7.634,0.27
7.636,0.265
7.638,0.29
7.64,0.41
7.642,0.24
7.644,0.125
7.646,-0.045
7.648,0.03
7.65,0.055
7.652,0.175
7.654,0.215
7.656,0.33
7.658,0.43
7.66,0.335
7.662,0.29
7.664,0.265
7.666,-0.005
7.668,-0.02
7.67,0.025
7.672,0.175
7.674,0.215
7.676,0.305
7.678,0.29
7.68,0.41
7.682,0.29
7.684,0.285
7.686,0.095
7.688,0.125
7.69,0.075
7.692,0.09
7.694,0.19
7.696,0.455
7.698,0.265
7.7,0.335
7.702,0.14
7.704,0.16
7.706,-0.055
7.708,0.035
7.71,0.07
7.712,0.155
7.714,0.185
7.716,0.35
7.718,0.405
7.72,0.33
7.722,0.095
7.724,0.135
7.726,-0.005
7.728,0.14
7.73,0.035
7.732,0.075
7.734,0.24
7.736,0.32
7.738,0.305
7.74,0.285
7.742,0.065
7.744,0.265
7.746,0.025
7.748,0.015
7.75,0.055
7.752,0.245
7.754,0.1
7.756,0.53
7.758,0.45
7.76,0.51
7.762,0.335
7.764,0.385
7.766,0.24
7.768,0.185
7.77,0.115
7.772,0.145
7.774,0.225
7.776,0.24
7.778,0.29
7.78,0.25
7.782,0.17
7.784,0.055
7.786,-0.175
7.788,-0.13
7.79,-0.045
7.792,-0.015
7.794,0.19
7.796,0.235
7.798,0.3
7.8,0.19
7.802,0.135
7.804,0.205
7.806,0.01
7.808,0
7.81,0.135
7.812,0.18
7.814,0.21
7.816,0.29
7.818,0.25
7.82,0.305
7.822,0.315
7.824,0.14
7.826,-0.03
7.828,0.05
7.83,0.05
7.832,0.195
7.834,0.3
7.836,0.375
7.838,0.425
7.84,0.31
7.842,0.18
7.844,0.175
7.846,-0.005
7.848,0.005
7.85,0.09
7.852,0.33
7.854,0.24
7.856,0.35
7.858,0.34
7.86,0.23
7.862,0.215
7.864,0.16
7.866,0.17
7.868,0.07
7.87,0.125
7.872,0.235
7.874,0.285
7.876,0.39
7.878,0.385
7.88,0.255
7.882,0.19
7.884,0.035
7.886,0.075
7.888,0.07
7.89,0.195
7.892,0.17
7.894,0.355
7.896,0.325
7.898,0.305
7.9,0.41
7.902,0.365
7.904,0.19
7.906,0.065
7.908,0.12
7.91,0.195
7.912,0.29
7.914,0.5
7.916,0.46
7.918,0.505
7.92,0.295
7.922,0.31
7.924,0.19
7.926,0.155
7.928,0.205
7.93,0.25
7.932,0.3
7.934,0.445
7.936,0.555
7.938,0.555
7.94,0.505
7.942,0.445
7.944,0.27
7.946,0.135
7.948,0.26
7.95,0.325
7.952,0.42
7.954,0.51
7.956,0.64
7.958,0.465
7.96,0.475
7.962,0.345
7.964,0.27
7.966,0.29
7.968,0.235
7.97,0.405
7.972,0.335
7.974,0.385
7.976,0.6
7.978,0.59
7.98,0.35
7.982,0.35
7.984,0.19
7.986,0.13
7.988,0.11
7.99,0.29
7.992,0.26
7.994,0.34
7.996,0.555
7.998,0.43
8,0.27
8.002,0.16
8.004,0.08
8.006,0.075
8.008,0.075
8.01,0.1
8.012,0.165
8.014,0.43
8.016,0.445
8.018,0.34
8.02,0.275
8.022,0.2
8.024,0.03
8.026,0.025
8.028,0.09
8.03,0.165
8.032,0.08
8.034,0.385
8.036,0.39
8.038,0.39
8.04,0.255
8.042,0.1
8.044,0.105
8.046,0.035
8.048,0.015
8.05,0.135
8.052,0.235
8.054,0.365
8.056,0.395
8.058,0.34
8.06,0.25
8.062,0.19
8.064,0.005
8.066,0.125
8.068,0.12
8.07,0.08
8.072,0.24
8.074,0.27
8.076,0.4
8.078,0.395
8.08,0.28
8.082,0.215
8.084,0.05
8.086,0.095
8.088,0.18
8.09,0.195
8.092,0.19
8.094,0.315
8.096,0.32
8.098,0.255
8.1,0.15
8.102,0.24
8.104,0.125
8.106,0.075
8.108,0.245
8.11,0.2
8.112,0.215
8.114,0.27
8.116,0.215
8.118,0.3
8.12,0.27
8.122,0.225
8.124,0.115
8.126,0.05
8.128,0.095
8.13,0.17
8.132,0.18
8.134,0.315
8.136,0.27
8.138,0.24
8.14,0.36
8.142,0.19
8.144,0.075
8.146,0.035
8.148,0.07
8.15,0.31
8.152,0.335
8.154,0.385
8.156,0.315
8.158,0.245
8.16,0.175
8.162,0.175
8.164,0.125
8.166,0.1
8.168,0.12
8.17,0.245
8.172,0.315
8.174,0.4
8.176,0.41
8.178,0.35
8.18,0.3
8.182,0.2
8.184,0.085
8.186,0.095
8.188,0.19
8.19,0.18
8.192,0.235
8.194,0.42
8.196,0.285
8.198,0.15
8.2,0.175
8.202,0.08
8.204,-0.055
8.206,0
8.208,0.28
8.21,0.3
8.212,0.24
8.214,0.375
8.216,0.365
8.218,0.225
8.22,0.18
8.222,0.04
8.224,0
8.226,0.08
8.228,0.05
8.23,0.095
8.232,0.31
8.234,0.37
8.236,0.29
8.238,0.255
8.24,0.21
8.242,0.08
8.244,0.025
8.246,0.14
8.248,0.205
8.25,0.2
8.252,0.38
8.254,0.34
8.256,0.335
8.258,0.29
8.26,0.29
8.262,0.155
8.264,0.2
8.266,0.28
8.268,0.14
8.27,0.245
8.272,0.43
8.274,0.315
8.276,0.355
8.278,0.18
8.28,0.14
8.282,-0.055
8.284,-0.105
8.286,-0.095
8.288,0.015
8.29,0.015
8.292,0.22
8.294,0.31
8.296,0.23
8.298,0.205
8.3,0.165
8.302,-0.045
8.304,0.03
8.306,0.055
8.308,0.065
8.31,0.175
8.312,0.29
8.314,0.4
8.316,0.4
8.318,0.345
8.32,0.135
8.322,-0.05
8.324,-0.035
8.326,0.07
8.328,0.065
8.33,0.225
8.332,0.33
8.334,0.375
8.336,0.415
8.338,0.23
8.34,0.155
8.342,0.05
8.344,0.02
8.346,0.035
8.348,0.18
8.35,0.16
8.352,0.435
8.354,0.32
8.356,0.36
8.358,0.24
8.36,0.165
8.362,0.02
8.364,0.065
8.366,0.085
8.368,0.195
8.37,0.24
8.372,0.38
8.374,0.35
8.376,0.37
8.378,0.195
8.38,0.19
8.382,0.08
8.384,0.11
8.386,0.065
8.388,0.19
8.39,0.355
8.392,0.35
8.394,0.37
8.396,0.41
8.398,0.155
8.4,0.135
8.402,0.09
8.404,0.11
8.406,0.18
8.408,0.225
8.41,0.32
8.412,0.38
8.414,0.435
8.416,0.385
8.418,0.295
8.42,0.31
8.422,0.13
8.424,0.14
8.426,0.235
8.428,0.315
8.43,0.25
8.432,0.555
8.434,0.58
8.436,0.355
8.438,0.385
8.44,0.33
8.442,0.2
8.444,0.135
8.446,0.33
8.448,0.375
8.45,0.48
8.452,0.605
8.454,0.57
8.456,0.46
8.458,0.41
8.46,0.38
8.462,0.235
8.464,0.185
8.466,0.35
8.468,0.32
8.47,0.44
8.472,0.5
8.474,0.48
8.476,0.395
8.478,0.34
8.48,0.205
8.482,0.125
8.484,-0.005
8.486,0.225
8.488,0.35
8.49,0.32
8.492,0.4
8.494,0.405
8.496,0.325
8.498,0.225
8.5,0.125
8.502,-0.06
8.504,-0.055
8.506,0.055
8.508,0.26
8.51,0.215
8.512,0.44
8.514,0.3
8.516,0.205
8.518,0.02
8.52,-0.09
8.522,0.2
8.524,0.19
8.526,0.185
8.528,0.265
8.53,0.34
8.532,0.405
8.534,0.37
8.536,0.195
8.538,0.085
8.54,-0.055
8.542,0.04
8.544,0.095
8.546,0.12
8.548,0.205
8.55,0.335
8.552,0.31
8.554,0.39
8.556,0.245
8.558,0.17
8.56,0.075
8.562,0.01
8.564,0.02
8.566,0.145
8.568,0.175
8.57,0.355
8.572,0.225
8.574,0.37
8.576,0.32
8.578,0.24
8.58,0.005
8.582,-0.07
8.584,0.245
8.586,0.165
8.588,0.105
8.59,0.335
8.592,0.255
8.594,0.285
8.596,0.185
8.598,0.18
8.6,0.11
8.602,0.185
8.604,0.155
8.606,0.08
8.608,0.25
8.61,0.195
8.612,0.33
8.614,0.27
8.616,0.26
8.618,0.125
8.62,0.09
8.622,0
8.624,0.03
8.626,0.075
8.628,0.215
8.63,0.425
8.632,0.35
8.634,0.34
8.636,0.19
8.638,0.11
8.64,0.02
8.642,0.115
8.644,0.105
8.646,0.24
8.648,0.175
8.65,0.28
8.652,0.375
8.654,0.295
8.656,0.2
8.658,0.2
8.66,-0.04
8.662,-0.02
8.664,0.135
8.666,0.155
8.668,0.185
8.67,0.495
8.672,0.4
8.674,0.28
8.676,0.34
8.678,0.18
8.68,-0.1
8.682,0.04
8.684,0.14
8.686,0.145
8.688,0.295
8.69,0.325
8.692,0.32
8.694,0.145
8.696,0.235
8.698,0.2
8.7,-0.07
8.702,0.085
8.704,0.065
8.706,0.08
8.708,0.155
8.71,0.325
8.712,0.38
8.714,0.33
8.716,0.2
8.718,0.13
8.72,-0.035
8.722,0.065
8.724,0.105
8.726,0.07
8.728,0.095
8.73,0.33
8.732,0.295
8.734,0.265
8.736,0.165
8.738,0.135
8.74,-0.035
8.742,0.055
8.744,0.005
8.746,0.12
8.748,0.175
8.75,0.34
8.752,0.37
8.754,0.29
8.756,0.16
8.758,0.115
8.76,0.005
8.762,0.075
8.764,0.15
8.766,0.33
8.768,0.395
8.77,0.615
8.772,0.51
8.774,0.36
8.776,0.18
8.778,0.06
8.78,-0.02
8.782,0.005
8.784,0.14
8.786,0.16
8.788,0.035
8.79,0.25
8.792,0.165
8.794,0.02
8.796,0.095
8.798,-0.19
8.8,-0.145
8.802,-0.08
8.804,0.07
8.806,0.085
8.808,0.24
8.81,0.425
8.812,0.37
8.814,0.255
8.816,0.2
8.818,0.075
8.82,-0.04
8.822,0.025
8.824,0.07
8.826,0.17
8.828,0.235
8.83,0.325
8.832,0.355
8.834,0.275
8.836,0.105
8.838,0.055
8.84,0.005
8.842,0.01
8.844,0.03
8.846,0.14
8.848,0.265
8.85,0.36
8.852,0.28
8.854,0.18
8.856,0.23
8.858,0.05
8.86,-0.08
8.862,0.11
8.864,0.075
8.866,0.205
8.868,0.24
8.87,0.495
8.872,0.385
8.874,0.3
8.876,0.15
8.878,-0.015
8.88,0.055
8.882,0.035
8.884,0.11
8.886,0.18
8.888,0.28
8.89,0.325
8.892,0.265
8.894,0.25
8.896,0.225
8.898,0.065
8.9,0.035
8.902,0.025
8.904,0.12
8.906,0.215
8.908,0.405
8.91,0.355
8.912,0.29
8.914,0.36
8.916,0.33
8.918,0.175
8.92,0.11
8.922,0.08
8.924,0.2
8.926,0.225
8.928,0.365
8.93,0.36
8.932,0.23
8.934,0.395
8.936,0.225
8.938,0.215
8.94,0.215
8.942,0.27
8.944,0.34
8.946,0.305
8.948,0.525
8.95,0.54
8.952,0.53
8.954,0.47
8.956,0.4
8.958,0.205
8.96,0.13
8.962,0.235
8.964,0.365
8.966,0.43
8.968,0.48
8.97,0.55
8.972,0.495
8.974,0.305
8.976,0.375
8.978,0.13
8.98,0.215
8.982,0.035
8.984,0.34
8.986,0.335
8.988,0.47
8.99,0.44
8.992,0.29
8.994,0.235
8.996,0.105
8.998,-0.11
9,0.095
9.002,0.25
9.004,0.255
9.006,0.265
9.008,0.305
9.01,0.35
9.012,0.295
9.014,0.145
9.016,0.15
9.018,0.005
9.02,0.01
9.022,-0.005
9.024,0.015
9.026,0.17
9.028,0.195
9.03,0.33
9.032,0.28
9.034,0.16
9.036,0.155
9.038,-0.045
9.04,-0.115
9.042,0.11
9.044,0.17
9.046,0.205
9.048,0.335
9.05,0.29
9.052,0.22
9.054,0.24
9.056,0.15
9.058,-0.05
9.06,0.02
9.062,-0.01
9.064,0.205
9.066,0.225
9.068,0.28
9.07,0.22
9.072,0.285
9.074,0.295
9.076,0.155
9.078,-0.01
9.08,-0.2
9.082,0.03
9.084,0.145
9.086,0.255
9.088,0.36
9.09,0.345
9.092,0.27
9.094,0.14
9.096,0.085
9.098,0.065
9.1,-0.045
9.102,0.14
9.104,0.12
9.106,0.18
9.108,0.275
9.11,0.29
9.112,0.21
9.114,0.13
9.116,0.085
9.118,-0.015
9.12,-0.07
9.122,-0.11
9.124,0.12
9.126,0.205
9.128,0.445
9.13,0.27
9.132,0.16
9.134,0.3
9.136,0.05
9.138,-0.07
9.14,0.085
9.142,0.08
9.144,0.085
9.146,0.26
9.148,0.385
9.15,0.275
9.152,0.21
9.154,0.155
9.156,0.01
9.158,0.095
9.16,0.015
9.162,0.07
9.164,0.27
9.166,0.41
9.168,0.32
9.17,0.27
9.172,0.21
9.174,0.105
9.176,0.02
9.178,0.06
9.18,0.1
9.182,0.13
9.184,0.2
9.186,0.215
9.188,0.37
9.19,0.185
9.192,0.16
9.194,0.23
9.196,0.025
9.198,-0.01
9.2,0.045
9.202,0.145
9.204,0.145
9.206,0.35
9.208,0.355
9.21,0.34
9.212,0.215
9.214,0.005
9.216,-0.03
9.218,-0.03
9.22,0.08
9.222,0.135
9.224,0.145
9.226,0.3
9.228,0.32
9.23,0.295
9.232,0.13
9.234,0.065
9.236,-0.05
9.238,-0.025
9.24,-0.02
9.242,0.125
9.244,0.1
9.246,0.23
9.248,0.27
9.25,0.185
9.252,0.18
9.254,0.025
9.256,0.095
9.258,0.05
9.26,0.165
9.262,0.225
9.264,0.1
9.266,0.435
9.268,0.47
9.27,0.465
9.272,0.335
9.274,0.295
9.276,0.25
9.278,0.125
9.28,0.075
9.282,0.055
9.284,0.18
9.286,0.475
9.288,0.37
9.29,0.26
9.292,0.07
9.294,-0.11
9.296,-0.225
9.298,-0.235
9.3,-0.135
9.302,0.065
9.304,-0.04
9.306,0.2
9.308,0.18
9.31,0.215
9.312,0.17
9.314,0.145
9.316,-0.03
9.318,-0.02
9.32,0.035
9.322,0
9.324,0.225
9.326,0.275
9.328,0.245
9.33,0.205
9.332,0.17
9.334,0.16
9.336,0.015
9.338,0.075
9.34,0.065
9.342,0.15
9.344,0.145
9.346,0.36
9.348,0.32
9.35,0.26
9.352,0.155
9.354,0.145
9.356,0.065
9.358,0
9.36,0.04
9.362,0.155
9.364,0.2
9.366,0.34
9.368,0.375
9.37,0.285
9.372,0.195
9.374,0.1
9.376,0.035
9.378,0.03
9.38,0.105
9.382,0.23
9.384,0.325
9.386,0.265
9.388,0.19
9.39,0.335
9.392,0.135
9.394,0.265
9.396,0.06
9.398,-0.015
9.4,0.17
9.402,0.26
9.404,0.3
9.406,0.39
9.408,0.37
9.41,0.28
9.412,0.205
9.414,0.2
9.416,0.13
9.418,0.08
9.42,0.195
9.422,0.2
9.424,0.29
9.426,0.445
9.428,0.49
9.43,0.365
9.432,0.285
9.434,0.17
9.436,0.185
9.438,0.18
9.44,0.175
9.442,0.34
9.444,0.48
9.446,0.635
9.448,0.555
9.45,0.415
9.452,0.335
9.454,0.35
9.456,0.25
9.458,0.26
9.46,0.255
9.462,0.49
9.464,0.52
9.466,0.455
9.468,0.56
9.47,0.42
9.472,0.39
9.474,0.235
9.476,0.23
9.478,0.31
9.48,0.37
9.482,0.425
9.484,0.32
9.486,0.535
9.488,0.3
9.49,0.4
9.492,0.255
9.494,0.17
9.496,0.14
9.498,0.17
9.5,0.275
9.502,0.29
9.504,0.37
9.506,0.28
9.508,0.345
9.51,0.23
9.512,0.26
9.514,0.135
9.516,0.09
9.518,0.075
9.52,0.145
9.522,0.215
9.524,0.345
9.526,0.35
9.528,0.365
9.53,0.275
9.532,0.185
9.534,0.04
9.536,0.05
9.538,0.015
9.54,0.115
9.542,0.175
9.544,0.305
9.546,0.33
9.548,0.305
9.55,0.27
9.552,0.165
9.554,0.02
9.556,0.065
9.558,0.075
9.56,0.115
9.562,0.235
9.564,0.335
9.566,0.425
9.568,0.175
9.57,0.255
9.572,0.045
9.574,0.06
9.576,0.155
9.578,0.05
9.58,0.155
9.582,0.215
9.584,0.355
9.586,0.375
9.588,0.24
9.59,0.17
9.592,0.175
9.594,0.045
9.596,0.05
9.598,0.045
9.6,0.16
9.602,0.25
9.604,0.325
9.606,0.26
9.608,0.31
9.61,0.28
9.612,0.25
9.614,0.095
9.616,0.005
9.618,0.04
9.62,0.195
9.622,0.24
9.624,0.345
9.626,0.395
9.628,0.245
9.63,0.215
9.632,0.17
9.634,-0.045
9.636,0.03
9.638,0.175
9.64,0.35
9.642,0.425
9.644,0.32
9.646,0.31
9.648,0.435
9.65,0.35
9.652,0.155
9.654,0.045
9.656,0.02
9.658,0.095
9.66,0.17
9.662,0.24
9.664,0.315
9.666,0.39
9.668,0.285
9.67,0.265
9.672,0.185
9.674,0.015
9.676,0.105
9.678,0.21
9.68,0.215
9.682,0.16
9.684,0.375
9.686,0.325
9.688,0.21
9.69,0.24
9.692,0.18
9.694,0.08
9.696,0.055
9.698,0.08
9.7,0.245
9.702,0.165
9.704,0.37
9.706,0.45
9.708,0.305
9.71,0.24
9.712,0.195
9.714,0.005
9.716,-0.14
9.718,0.055
9.72,0.205
9.722,0.205
9.724,0.355
9.726,0.4
9.728,0.28
9.73,0.17
9.732,0.155
9.734,-0.05
9.736,0.015
9.738,0.07
9.74,0.25
9.742,0.345
9.744,0.335
9.746,0.425
9.748,0.3
9.75,0.195
9.752,0.05
9.754,-0.01
9.756,0.08
9.758,0.17
9.76,0.355
9.762,0.65
9.764,0.605
9.766,0.565
9.768,0.47
9.77,0.295
9.772,0.15
9.774,-0.06
9.776,0.06
9.778,0.2
9.78,0.16
9.782,0.215
9.784,0.33
9.786,0.1
9.788,-0.04
9.79,-0.04
9.792,-0.09
9.794,-0.085
9.796,-0.055
9.798,0.015
9.8,0.045
9.802,0.29
9.804,0.415
9.806,0.35
9.808,0.29
9.81,0.23
9.812,0.055
9.814,0.03
9.816,0.005
9.818,0.15
9.82,0.145
9.822,0.215
9.824,0.425
9.826,0.385
9.828,0.23
9.83,0.115
9.832,0.12
9.834,0.07
9.836,0.12
9.838,0.125
9.84,0.305
9.842,0.37
9.844,0.355
9.846,0.155
9.848,0.19
9.85,0.3
9.852,0.15
9.854,0.035
9.856,0.035
9.858,0.12
9.86,0.255
9.862,0.29
9.864,0.285
9.866,0.305
9.868,0.39
9.87,0.245
9.872,0.095
9.874,0
9.876,0.125
9.878,0.225
9.88,0.225
9.882,0.345
9.884,0.28
9.886,0.315
9.888,0.205
9.89,0.225
9.892,0.21
9.894,0.135
9.896,0.14
9.898,0.26
9.9,0.26
9.902,0.37
9.904,0.345
9.906,0.405
9.908,0.265
9.91,0.35
9.912,0.205
9.914,0.125
9.916,0.16
9.918,0.25
9.92,0.25
9.922,0.425
9.924,0.48
9.926,0.375
9.928,0.37
9.93,0.3
9.932,0.095
9.934,0.18
9.936,0.275
9.938,0.42
9.94,0.53
9.942,0.595
9.944,0.575
9.946,0.515
9.948,0.43
9.95,0.325
9.952,0.2
9.954,0.255
9.956,0.34
9.958,0.35
9.96,0.295
9.962,0.53
9.964,0.61
9.966,0.455
9.968,0.48
9.97,0.36
9.972,0.205
9.974,0.165
9.976,0.09
9.978,0.33
9.98,0.34
9.982,0.5
9.984,0.55
9.986,0.44
9.988,0.265
9.99,0.25
9.992,0.12
9.994,0.15
9.996,0.175
9.998,0.155
