0,-0.27
0.002,-0.23
0.004,-0.16
0.006,-0.15
0.008,-0.06
0.01,-0.04
0.012,-0.03
0.014,-0.165
0.016,-0.18
0.018,-0.285
0.02,-0.265
0.022,-0.21
0.024,-0.165
0.026,-0.125
0.028,-0.055
0.03,-0.045
0.032,-0.08
0.034,-0.225
0.036,-0.255
0.038,-0.32
0.04,-0.265
0.042,-0.185
0.044,-0.105
0.046,-0.1
0.048,-0.02
0.05,-0.03
0.052,-0.08
0.054,-0.17
0.056,-0.22
0.058,-0.27
0.06,-0.275
0.062,-0.235
0.064,-0.125
0.066,-0.095
0.068,-0.05
0.07,-0.04
0.072,-0.1
0.074,-0.165
0.076,-0.215
0.078,-0.265
0.08,-0.23
0.082,-0.19
0.084,-0.12
0.086,-0.105
0.088,-0.025
0.09,-0.01
0.092,-0.13
0.094,-0.19
0.096,-0.195
0.098,-0.23
0.1,-0.235
0.102,-0.195
0.104,-0.11
0.106,0.005
0.108,0.035
0.11,-0.01
0.112,-0.085
0.114,-0.185
0.116,-0.225
0.118,-0.29
0.12,-0.255
0.122,-0.135
0.124,-0.065
0.126,-0.04
0.128,-0.075
0.13,-0.13
0.132,-0.215
0.134,-0.21
0.136,-0.19
0.138,-0.255
0.14,-0.265
0.142,-0.2
0.144,-0.115
0.146,-0.075
0.148,-0.045
0.15,-0.08
0.152,-0.18
0.154,-0.22
0.156,-0.25
0.158,-0.285
0.16,-0.225
0.162,-0.14
0.164,-0.13
0.166,-0.04
0.168,0.005
0.17,-0.045
0.172,-0.105
0.174,-0.13
0.176,-0.245
0.178,-0.275
0.18,-0.225
0.182,-0.14
0.184,-0.145
0.186,-0.045
0.188,0.02
0.19,-0.045
0.192,-0.1
0.194,-0.145
0.196,-0.26
0.198,-0.235
0.2,-0.24
0.202,-0.215
0.204,-0.125
0.206,0.02
0.208,-0.065
0.21,-0.12
0.212,-0.11
0.214,-0.165
0.216,-0.27
0.218,-0.24
0.22,-0.205
0.222,-0.145
0.224,-0.145
0.226,-0.02
0.228,-0.015
0.23,-0.055
0.232,-0.14
0.234,-0.155
0.236,-0.17
0.238,-0.185
0.24,-0.195
0.242,-0.045
0.244,-0.02
0.246,0.085
0.248,-0.025
0.25,-0.075
0.252,-0.135
0.254,-0.17
0.256,-0.25
0.258,-0.2
0.26,-0.185
0.262,-0.14
0.264,-0.07
0.266,0.005
0.268,-0.03
0.27,-0.085
0.272,-0.175
0.274,-0.2
0.276,-0.25
0.278,-0.21
0.28,-0.16
0.282,-0.085
0.284,-0.06
0.286,-0.01
0.288,-0.065
0.29,-0.155
0.292,-0.135
0.294,-0.17
0.296,-0.28
0.298,-0.23
0.3,-0.18
0.302,-0.135
0.304,-0.165
0.306,-0.065
0.308,-0.025
0.31,-0.09
0.312,-0.175
0.314,-0.195
0.316,-0.265
0.318,-0.29
0.32,-0.26
0.322,-0.17
0.324,-0.095
0.326,0
0.328,-0.04
0.33,-0.09
0.332,-0.215
0.334,-0.26
0.336,-0.395
0.338,-0.405
0.34,-0.365
0.342,-0.3
0.344,-0.215
0.346,-0.095
0.348,-0.075
0.35,-0.09
0.352,-0.045
0.354,0.075
0.356,0.175
0.358,0.355
0.36,0.565
0.362,0.755
0.364,0.9
0.366,1.105
0.368,1.225
0.37,1.25
0.372,1.19
0.374,1.16
0.376,1.04
0.378,0.885
0.38,0.795
0.382,0.675
0.384,0.535
0.386,0.415
0.388,0.22
0.39,0.03
0.392,-0.06
0.394,-0.11
0.396,-0.21
0.398,-0.19
0.4,-0.105
0.402,-0.075
0.404,-0.035
0.406,-0.02
0.408,-0.05
0.41,-0.11
0.412,-0.175
0.414,-0.215
0.416,-0.255
0.418,-0.275
0.42,-0.265
0.422,-0.155
0.424,-0.065
0.426,-0.035
0.428,-0.095
0.43,-0.165
0.432,-0.22
0.434,-0.22
0.436,-0.275
0.438,-0.3
0.44,-0.185
0.442,-0.16
0.444,-0.1
0.446,-0.04
0.448,-0.045
0.45,-0.095
0.452,-0.16
0.454,-0.28
0.456,-0.29
0.458,-0.26
0.46,-0.215
0.462,-0.175
0.464,-0.115
0.466,-0.11
0.468,-0.17
0.47,-0.17
0.472,-0.205
0.474,-0.29
0.476,-0.275
0.478,-0.22
0.48,-0.105
0.482,-0.17
0.484,-0.11
0.486,-0.045
0.488,-0.09
0.49,-0.175
0.492,-0.235
0.494,-0.305
0.496,-0.27
0.498,-0.255
0.5,-0.21
0.502,-0.185
0.504,-0.06
0.506,-0.015
0.508,-0.06
0.51,-0.175
0.512,-0.215
0.514,-0.26
0.516,-0.275
0.518,-0.25
0.52,-0.155
0.522,-0.09
0.524,0.005
0.526,-0.05
0.528,-0.075
0.53,-0.115
0.532,-0.135
0.534,-0.22
0.536,-0.2
0.538,-0.18
0.54,-0.115
0.542,-0.08
0.544,-0.02
0.546,-0.07
0.548,-0.065
0.55,-0.14
0.552,-0.22
0.554,-0.27
0.556,-0.195
0.558,-0.115
0.56,-0.065
0.562,0.01
0.564,0.105
0.566,0.11
0.568,0
0.57,-0.15
0.572,-0.19
0.574,-0.215
0.576,-0.175
0.578,-0.17
0.58,-0.11
0.582,-0.05
0.584,0.07
0.586,0.08
0.588,0.055
0.59,-0.025
0.592,-0.055
0.594,-0.175
0.596,-0.125
0.598,-0.08
0.6,0.005
0.602,0.025
0.604,0.105
0.606,0.095
0.608,0.05
0.61,-0.01
0.612,-0.07
0.614,-0.115
0.616,-0.085
0.618,-0.045
0.62,-0.02
0.622,-0.005
0.624,0.08
0.626,0.045
0.628,0.025
0.63,-0.06
0.632,-0.14
0.634,-0.195
0.636,-0.15
0.638,-0.14
0.64,-0.075
0.642,-0.025
0.644,0.045
0.646,0.035
0.648,-0.015
0.65,-0.095
0.652,-0.11
0.654,-0.2
0.656,-0.185
0.658,-0.14
0.66,-0.115
0.662,-0.1
0.664,-0.035
0.666,-0.045
0.668,-0.155
0.67,-0.17
0.672,-0.21
0.674,-0.26
0.676,-0.22
0.678,-0.19
0.68,-0.115
0.682,-0.07
0.684,-0.025
0.686,-0.06
0.688,-0.085
0.69,-0.165
0.692,-0.19
0.694,-0.26
0.696,-0.25
0.698,-0.2
0.7,-0.15
0.702,-0.145
0.704,-0.095
0.706,-0.065
0.708,-0.13
0.71,-0.16
0.712,-0.225
0.714,-0.25
0.716,-0.225
0.718,-0.22
0.72,-0.17
0.722,-0.1
0.724,-0.055
0.726,-0.065
0.728,-0.115
0.73,-0.18
0.732,-0.23
0.734,-0.21
0.736,-0.2
0.738,-0.165
0.74,-0.11
0.742,-0.075
0.744,-0.05
0.746,-0.07
0.748,-0.18
0.75,-0.185
0.752,-0.28
0.754,-0.275
0.756,-0.25
0.758,-0.18
0.76,-0.16
0.762,-0.075
0.764,-0.025
0.766,-0.025
0.768,-0.155
0.77,-0.175
0.772,-0.27
0.774,-0.275
0.776,-0.25
0.778,-0.185
0.78,-0.175
0.782,-0.105
0.784,-0.09
0.786,-0.065
0.788,-0.14
0.79,-0.18
0.792,-0.26
0.794,-0.21
0.796,-0.16
0.798,-0.13
0.8,-0.095
0.802,-0.04
0.804,-0.05
0.806,-0.075
0.808,-0.09
0.81,-0.165
0.812,-0.26
0.814,-0.27
0.816,-0.23
0.818,-0.195
0.82,-0.11
0.822,-0.035
0.824,-0.075
0.826,-0.1
0.828,-0.165
0.83,-0.185
0.832,-0.245
0.834,-0.315
0.836,-0.265
0.838,-0.15
0.84,-0.115
0.842,-0.04
0.844,-0.045
0.846,-0.085
0.848,-0.13
0.85,-0.175
0.852,-0.26
0.854,-0.26
0.856,-0.21
0.858,-0.13
0.86,-0.13
0.862,-0.05
0.864,-0.075
0.866,-0.105
0.868,-0.145
0.87,-0.175
0.872,-0.26
0.874,-0.265
0.876,-0.22
0.878,-0.18
0.88,-0.16
0.882,-0.025
0.884,-0.075
0.886,-0.115
0.888,-0.16
0.89,-0.18
0.892,-0.255
0.894,-0.255
0.896,-0.165
0.898,-0.16
0.9,-0.175
0.902,-0.07
0.904,-0.06
0.906,-0.065
0.908,-0.09
0.91,-0.18
0.912,-0.235
0.914,-0.225
0.916,-0.18
0.918,-0.12
0.92,-0.14
0.922,-0.05
0.924,-0.065
0.926,-0.11
0.928,-0.185
0.93,-0.215
0.932,-0.285
0.934,-0.27
0.936,-0.185
0.938,-0.13
0.94,-0.11
0.942,-0.04
0.944,-0.075
0.946,-0.11
0.948,-0.165
0.95,-0.16
0.952,-0.255
0.954,-0.3
0.956,-0.25
0.958,-0.185
0.96,-0.08
0.962,-0.015
0.964,-0.065
0.966,-0.085
0.968,-0.145
0.97,-0.185
0.972,-0.275
0.974,-0.255
0.976,-0.235
0.978,-0.11
0.98,-0.07
0.982,0.005
0.984,-0.035
0.986,-0.055
0.988,-0.11
0.99,-0.22
0.992,-0.235
0.994,-0.185
0.996,-0.185
0.998,-0.12
1,-0.085
1.002,-0.02
1.004,-0.085
1.006,-0.13
1.008,-0.115
1.01,-0.2
1.012,-0.23
1.014,-0.195
1.016,-0.115
1.018,-0.075
1.02,-0.08
1.022,-0.07
1.024,-0.05
1.026,-0.11
1.028,-0.175
1.03,-0.295
1.032,-0.325
1.034,-0.31
1.036,-0.23
1.038,-0.135
1.04,-0.055
1.042,-0.05
1.044,-0.085
1.046,-0.155
1.048,-0.17
1.05,-0.24
1.052,-0.29
1.054,-0.295
1.056,-0.205
1.058,-0.17
1.06,-0.09
1.062,-0.09
1.064,-0.15
1.066,-0.205
1.068,-0.205
1.07,-0.235
1.072,-0.215
1.074,-0.265
1.076,-0.245
1.078,-0.225
1.08,-0.195
1.082,-0.24
1.084,-0.275
1.086,-0.34
1.088,-0.34
1.09,-0.37
1.092,-0.3
1.094,-0.175
1.096,-0.01
1.098,0.165
1.1,0.355
1.102,0.54
1.104,0.665
1.106,0.755
1.108,0.885
1.11,0.795
1.112,0.965
1.114,1.06
1.116,1.11
1.118,1.12
1.12,1.135
1.122,0.97
1.124,0.815
1.126,0.585
1.128,0.35
1.13,0.06
1.132,-0.035
1.134,-0.095
1.136,-0.09
1.138,-0.13
1.14,-0.05
1.142,-0.005
1.144,-0.09
1.146,-0.205
1.148,-0.2
1.15,-0.3
1.152,-0.28
1.154,-0.23
1.156,-0.155
1.158,-0.12
1.16,-0.1
1.162,-0.135
1.164,-0.18
1.166,-0.255
1.168,-0.275
1.17,-0.345
1.172,-0.31
1.174,-0.245
1.176,-0.165
1.178,-0.18
1.18,-0.125
1.182,-0.135
1.184,-0.165
1.186,-0.21
1.188,-0.255
1.19,-0.385
1.192,-0.31
1.194,-0.285
1.196,-0.25
1.198,-0.18
1.2,-0.08
1.202,-0.075
1.204,-0.12
1.206,-0.14
1.208,-0.235
1.21,-0.31
1.212,-0.295
1.214,-0.25
1.216,-0.2
1.218,-0.165
1.22,-0.145
1.222,-0.17
1.224,-0.175
1.226,-0.245
1.228,-0.24
1.23,-0.295
1.232,-0.285
1.234,-0.215
1.236,-0.15
1.238,-0.12
1.24,-0.105
1.242,-0.115
1.244,-0.165
1.246,-0.2
1.248,-0.26
1.25,-0.315
1.252,-0.315
1.254,-0.22
1.256,-0.16
1.258,-0.19
1.26,-0.07
1.262,-0.11
1.264,-0.19
1.266,-0.235
1.268,-0.255
1.27,-0.335
1.272,-0.275
1.274,-0.22
1.276,-0.14
1.278,-0.11
1.28,-0.11
1.282,-0.13
1.284,-0.145
1.286,-0.175
1.288,-0.205
1.29,-0.2
1.292,-0.185
1.294,-0.135
1.296,-0.14
1.298,-0.09
1.3,-0.055
1.302,-0.025
1.304,-0.065
1.306,-0.185
1.308,-0.225
1.31,-0.225
1.312,-0.22
1.314,-0.16
1.316,-0.11
1.318,-0.07
1.32,-0.055
1.322,-0.085
1.324,-0.13
1.326,-0.09
1.328,-0.16
1.33,-0.16
1.332,-0.14
1.334,-0.075
1.336,-0.03
1.338,0.03
1.34,0.015
1.342,0.01
1.344,-0.06
1.346,-0.085
1.348,-0.145
1.35,-0.155
1.352,-0.12
1.354,-0.065
1.356,-0.035
1.358,0.01
1.36,0
1.362,-0.06
1.364,-0.095
1.366,-0.08
1.368,-0.125
1.37,-0.11
1.372,-0.135
1.374,-0.06
1.376,-0.045
1.378,-0.01
1.38,-0.045
1.382,-0.07
1.384,-0.125
1.386,-0.13
1.388,-0.2
1.39,-0.185
1.392,-0.195
1.394,-0.13
1.396,-0.08
1.398,-0.045
1.4,-0.045
1.402,-0.07
1.404,-0.145
1.406,-0.195
1.408,-0.245
1.41,-0.22
1.412,-0.255
1.414,-0.205
1.416,-0.175
1.418,-0.1
1.42,-0.155
1.422,-0.16
1.424,-0.205
1.426,-0.24
1.428,-0.295
1.43,-0.26
1.432,-0.22
1.434,-0.16
1.436,-0.185
1.438,-0.12
1.44,-0.115
1.442,-0.16
1.444,-0.23
1.446,-0.285
1.448,-0.265
1.45,-0.285
1.452,-0.22
1.454,-0.17
1.456,-0.185
1.458,-0.12
1.46,-0.16
1.462,-0.245
1.464,-0.295
1.466,-0.285
1.468,-0.335
1.47,-0.28
1.472,-0.23
1.474,-0.13
1.476,-0.115
1.478,-0.085
1.48,-0.125
1.482,-0.195
1.484,-0.255
1.486,-0.28
1.488,-0.32
1.49,-0.3
1.492,-0.235
1.494,-0.195
1.496,-0.135
1.498,-0.09
1.5,-0.115
1.502,-0.15
1.504,-0.215
1.506,-0.29
1.508,-0.33
1.51,-0.295
1.512,-0.235
1.514,-0.185
1.516,-0.115
1.518,-0.055
1.52,-0.095
1.522,-0.155
1.524,-0.25
1.526,-0.285
1.528,-0.295
1.53,-0.275
1.532,-0.24
1.534,-0.22
1.536,-0.19
1.538,-0.175
1.54,-0.18
1.542,-0.22
1.544,-0.27
1.546,-0.27
1.548,-0.285
1.55,-0.265
1.552,-0.215
1.554,-0.19
1.556,-0.155
1.558,-0.12
1.56,-0.185
1.562,-0.2
1.564,-0.245
1.566,-0.26
1.568,-0.28
1.57,-0.275
1.572,-0.205
1.574,-0.145
1.576,-0.125
1.578,-0.09
1.58,-0.095
1.582,-0.14
1.584,-0.275
1.586,-0.295
1.588,-0.28
1.59,-0.215
1.592,-0.155
1.594,-0.155
1.596,-0.145
1.598,-0.145
1.6,-0.165
1.602,-0.23
1.604,-0.26
1.606,-0.31
1.608,-0.295
1.61,-0.26
1.612,-0.21
1.614,-0.1
1.616,-0.08
1.618,-0.055
1.62,-0.115
1.622,-0.16
1.624,-0.255
1.626,-0.325
1.628,-0.3
1.63,-0.29
1.632,-0.225
1.634,-0.195
1.636,-0.14
1.638,-0.11
1.64,-0.17
1.642,-0.28
1.644,-0.315
1.646,-0.33
1.648,-0.255
1.65,-0.21
1.652,-0.17
1.654,-0.13
1.656,-0.045
1.658,-0.075
1.66,-0.145
1.662,-0.215
1.664,-0.255
1.666,-0.28
1.668,-0.25
1.67,-0.23
1.672,-0.17
1.674,-0.12
1.676,-0.065
1.678,-0.03
1.68,-0.075
1.682,-0.125
1.684,-0.175
1.686,-0.21
1.688,-0.21
1.69,-0.2
1.692,-0.155
1.694,-0.14
1.696,-0.06
1.698,-0.095
1.7,-0.155
1.702,-0.25
1.704,-0.31
1.706,-0.335
1.708,-0.28
1.71,-0.25
1.712,-0.2
1.714,-0.19
1.716,-0.095
1.718,-0.095
1.72,-0.175
1.722,-0.255
1.724,-0.295
1.726,-0.34
1.728,-0.295
1.73,-0.225
1.732,-0.17
1.734,-0.135
1.736,-0.08
1.738,-0.165
1.74,-0.195
1.742,-0.245
1.744,-0.265
1.746,-0.305
1.748,-0.29
1.75,-0.235
1.752,-0.18
1.754,-0.135
1.756,-0.045
1.758,-0.07
1.76,-0.125
1.762,-0.195
1.764,-0.245
1.766,-0.335
1.768,-0.33
1.77,-0.34
1.772,-0.29
1.774,-0.285
1.776,-0.225
1.778,-0.245
1.78,-0.24
1.782,-0.245
1.784,-0.21
1.786,-0.13
1.788,-0.015
1.79,0.175
1.792,0.35
1.794,0.495
1.796,0.695
1.798,0.795
1.8,0.865
1.802,0.96
1.804,0.98
1.806,0.965
1.808,0.895
1.81,0.84
1.812,0.775
1.814,0.69
1.816,0.555
1.818,0.315
1.82,0.11
1.822,-0.06
1.824,-0.17
1.826,-0.235
1.828,-0.23
1.83,-0.22
1.832,-0.15
1.834,-0.09
1.836,-0.08
1.838,-0.13
1.84,-0.185
1.842,-0.27
1.844,-0.305
1.846,-0.27
1.848,-0.275
1.85,-0.215
1.852,-0.17
1.854,-0.1
1.856,-0.085
1.858,-0.115
1.86,-0.22
1.862,-0.295
1.864,-0.3
1.866,-0.305
1.868,-0.25
1.87,-0.17
1.872,-0.16
1.874,-0.16
1.876,-0.14
1.878,-0.175
1.88,-0.235
1.882,-0.27
1.884,-0.305
1.886,-0.31
1.888,-0.28
1.89,-0.23
1.892,-0.235
1.894,-0.2
1.896,-0.165
1.898,-0.17
1.9,-0.25
1.902,-0.275
1.904,-0.325
1.906,-0.295
1.908,-0.21
1.91,-0.175
1.912,-0.13
1.914,-0.12
1.916,-0.13
1.918,-0.115
1.92,-0.24
1.922,-0.31
1.924,-0.35
1.926,-0.325
1.928,-0.285
1.93,-0.195
1.932,-0.185
1.934,-0.12
1.936,-0.08
1.938,-0.115
1.94,-0.225
1.942,-0.265
1.944,-0.35
1.946,-0.32
1.948,-0.265
1.95,-0.21
1.952,-0.155
1.954,-0.115
1.956,-0.1
1.958,-0.135
1.96,-0.175
1.962,-0.205
1.964,-0.225
1.966,-0.235
1.968,-0.26
1.97,-0.19
1.972,-0.125
1.974,-0.065
1.976,-0.085
1.978,-0.105
1.98,-0.15
1.982,-0.195
1.984,-0.265
1.986,-0.245
1.988,-0.2
1.99,-0.135
1.992,-0.095
1.994,-0.055
1.996,-0.07
1.998,-0.115
2,-0.135
2.002,-0.16
2.004,-0.195
2.006,-0.17
2.008,-0.155
2.01,-0.105
2.012,-0.05
2.014,0.01
2.016,-0.07
2.018,-0.03
2.02,-0.12
2.022,-0.14
2.024,-0.17
2.026,-0.12
2.028,-0.065
2.03,-0.04
2.032,-0.035
2.034,0.01
2.036,-0.005
2.038,-0.035
2.04,-0.145
2.042,-0.105
2.044,-0.15
2.046,-0.125
2.048,-0.04
2.05,0.02
2.052,0.02
2.054,0.04
2.056,0.04
2.058,0
2.06,-0.065
2.062,-0.105
2.064,-0.19
2.066,-0.21
2.068,-0.12
2.07,-0.085
2.072,-0.105
2.074,-0.025
2.076,-0.05
2.078,-0.105
2.08,-0.145
2.082,-0.17
2.084,-0.19
2.086,-0.19
2.088,-0.19
2.09,-0.135
2.092,-0.12
2.094,-0.095
2.096,-0.14
2.098,-0.235
2.1,-0.295
2.102,-0.305
2.104,-0.285
2.106,-0.24
2.108,-0.14
2.11,-0.145
2.112,-0.145
2.114,-0.14
2.116,-0.145
2.118,-0.17
2.12,-0.195
2.122,-0.22
2.124,-0.25
2.126,-0.25
2.128,-0.22
2.13,-0.21
2.132,-0.155
2.134,-0.14
2.136,-0.13
2.138,-0.2
2.14,-0.27
2.142,-0.255
2.144,-0.29
2.146,-0.245
2.148,-0.145
2.15,-0.115
2.152,-0.075
2.154,-0.1
2.156,-0.155
2.158,-0.27
2.16,-0.33
2.162,-0.345
2.164,-0.335
2.166,-0.26
2.168,-0.185
2.17,-0.19
2.172,-0.15
2.174,-0.13
2.176,-0.115
2.178,-0.15
2.18,-0.16
2.182,-0.215
2.184,-0.305
2.186,-0.29
2.188,-0.215
2.19,-0.205
2.192,-0.2
2.194,-0.15
2.196,-0.145
2.198,-0.2
2.2,-0.225
2.202,-0.29
2.204,-0.27
2.206,-0.23
2.208,-0.14
2.21,-0.105
2.212,-0.065
2.214,-0.09
2.216,-0.17
2.218,-0.21
2.22,-0.245
2.222,-0.325
2.224,-0.32
2.226,-0.28
2.228,-0.18
2.23,-0.105
2.232,-0.045
2.234,-0.12
2.236,-0.115
2.238,-0.135
2.24,-0.235
2.242,-0.295
2.244,-0.295
2.246,-0.285
2.248,-0.215
2.25,-0.185
2.252,-0.15
2.254,-0.155
2.256,-0.185
2.258,-0.23
2.26,-0.22
2.262,-0.26
2.264,-0.23
2.266,-0.17
2.268,-0.1
2.27,-0.135
2.272,-0.115
2.274,-0.145
2.276,-0.17
2.278,-0.25
2.28,-0.26
2.282,-0.245
2.284,-0.22
2.286,-0.19
2.288,-0.195
2.29,-0.16
2.292,-0.075
2.294,-0.14
2.296,-0.175
2.298,-0.195
2.3,-0.195
2.302,-0.28
2.304,-0.25
2.306,-0.205
2.308,-0.135
2.31,-0.095
2.312,-0.045
2.314,-0.06
2.316,-0.12
2.318,-0.205
2.32,-0.205
2.322,-0.27
2.324,-0.215
2.326,-0.15
2.328,-0.065
2.33,-0.045
2.332,-0.005
2.334,-0.02
2.336,-0.1
2.338,-0.17
2.34,-0.25
2.342,-0.27
2.344,-0.245
2.346,-0.225
2.348,-0.165
2.35,-0.115
2.352,-0.065
2.354,-0.08
2.356,-0.155
2.358,-0.245
2.36,-0.275
2.362,-0.33
2.364,-0.27
2.366,-0.235
2.368,-0.18
2.37,-0.15
2.372,-0.095
2.374,-0.145
2.376,-0.215
2.378,-0.27
2.38,-0.29
2.382,-0.295
2.384,-0.23
2.386,-0.225
2.388,-0.105
2.39,-0.13
2.392,-0.075
2.394,-0.08
2.396,-0.115
2.398,-0.21
2.4,-0.285
2.402,-0.32
2.404,-0.27
2.406,-0.26
2.408,-0.2
2.41,-0.165
2.412,-0.09
2.414,-0.16
2.416,-0.225
2.418,-0.265
2.42,-0.31
2.422,-0.34
2.424,-0.29
2.426,-0.275
2.428,-0.3
2.43,-0.295
2.432,-0.255
2.434,-0.29
2.436,-0.335
2.438,-0.315
2.44,-0.295
2.442,-0.275
2.444,-0.21
2.446,-0.055
2.448,0.115
2.45,0.305
2.452,0.42
2.454,0.55
2.456,0.7
2.458,0.775
2.46,0.85
2.462,0.915
2.464,0.955
2.466,1.035
2.468,1.045
2.47,0.97
2.472,0.865
2.474,0.665
2.476,0.375
2.478,0.2
2.48,-0.02
2.482,-0.155
2.484,-0.18
2.486,-0.125
2.488,-0.115
2.49,-0.1
2.492,-0.055
2.494,-0.12
2.496,-0.2
2.498,-0.23
2.5,-0.265
2.502,-0.295
2.504,-0.325
2.506,-0.26
2.508,-0.25
2.51,-0.175
2.512,-0.15
2.514,-0.165
2.516,-0.245
2.518,-0.29
2.52,-0.385
2.522,-0.345
2.524,-0.3
2.526,-0.27
2.528,-0.225
2.53,-0.195
2.532,-0.2
2.534,-0.21
2.536,-0.28
2.538,-0.325
2.54,-0.345
2.542,-0.345
2.544,-0.32
2.546,-0.215
2.548,-0.215
2.55,-0.15
2.552,-0.16
2.554,-0.2
2.556,-0.225
2.558,-0.285
2.56,-0.335
2.562,-0.35
2.564,-0.305
2.566,-0.2
2.568,-0.225
2.57,-0.165
2.572,-0.175
2.574,-0.195
2.576,-0.275
2.578,-0.305
2.58,-0.345
2.582,-0.35
2.584,-0.305
2.586,-0.225
2.588,-0.19
2.59,-0.09
2.592,-0.085
2.594,-0.205
2.596,-0.265
2.598,-0.275
2.6,-0.37
2.602,-0.35
2.604,-0.28
2.606,-0.215
2.608,-0.185
2.61,-0.13
2.612,-0.17
2.614,-0.21
2.616,-0.265
2.618,-0.28
2.62,-0.295
2.622,-0.27
2.624,-0.235
2.626,-0.19
2.628,-0.165
2.63,-0.085
2.632,-0.155
2.634,-0.25
2.636,-0.265
2.638,-0.275
2.64,-0.355
2.642,-0.28
2.644,-0.245
2.646,-0.14
2.648,-0.09
2.65,-0.04
2.652,-0.03
2.654,-0.075
2.656,-0.19
2.658,-0.19
2.66,-0.255
2.662,-0.23
2.664,-0.17
2.666,-0.115
2.668,-0.08
2.67,-0.04
2.672,-0.075
2.674,-0.085
2.676,-0.11
2.678,-0.175
2.68,-0.21
2.682,-0.15
2.684,-0.105
2.686,-0.07
2.688,-0.055
2.69,-0.015
2.692,-0.02
2.694,-0.075
2.696,-0.125
2.698,-0.155
2.7,-0.19
2.702,-0.195
2.704,-0.155
2.706,-0.005
2.708,-0.005
2.71,0.025
2.712,-0.03
2.714,-0.07
2.716,-0.125
2.718,-0.18
2.72,-0.205
2.722,-0.17
2.724,-0.14
2.726,-0.09
2.728,-0.04
2.73,0.005
2.732,-0.055
2.734,-0.175
2.736,-0.23
2.738,-0.215
2.74,-0.26
2.742,-0.235
2.744,-0.2
2.746,-0.22
2.748,-0.195
2.75,-0.16
2.752,-0.21
2.754,-0.235
2.756,-0.265
2.758,-0.295
2.76,-0.315
2.762,-0.27
2.764,-0.2
2.766,-0.165
2.768,-0.155
2.77,-0.12
2.772,-0.155
2.774,-0.225
2.776,-0.285
2.778,-0.29
2.78,-0.29
2.782,-0.285
2.784,-0.24
2.786,-0.21
2.788,-0.165
2.79,-0.16
2.792,-0.16
2.794,-0.235
2.796,-0.3
2.798,-0.3
2.8,-0.32
2.802,-0.3
2.804,-0.25
2.806,-0.18
2.808,-0.13
2.81,-0.12
2.812,-0.2
2.814,-0.2
2.816,-0.24
2.818,-0.32
2.82,-0.295
2.822,-0.215
2.824,-0.2
2.826,-0.21
2.828,-0.17
2.83,-0.195
2.832,-0.245
2.834,-0.285
2.836,-0.305
2.838,-0.345
2.84,-0.295
2.842,-0.27
2.844,-0.22
2.846,-0.155
2.848,-0.095
2.85,-0.16
2.852,-0.19
2.854,-0.25
2.856,-0.305
2.858,-0.375
2.86,-0.33
2.862,-0.31
2.864,-0.235
2.866,-0.2
2.868,-0.17
2.87,-0.205
2.872,-0.195
2.874,-0.255
2.876,-0.24
2.878,-0.31
2.88,-0.32
2.882,-0.28
2.884,-0.22
2.886,-0.195
2.888,-0.14
2.89,-0.16
2.892,-0.19
2.894,-0.255
2.896,-0.28
2.898,-0.335
2.9,-0.31
2.902,-0.27
2.904,-0.19
2.906,-0.155
2.908,-0.105
2.91,-0.11
2.912,-0.15
2.914,-0.265
2.916,-0.26
2.918,-0.39
2.92,-0.335
2.922,-0.29
2.924,-0.225
2.926,-0.15
2.928,-0.075
2.93,-0.085
2.932,-0.165
2.934,-0.24
2.936,-0.255
2.938,-0.305
2.94,-0.29
2.942,-0.255
2.944,-0.125
2.946,-0.16
2.948,-0.13
2.95,-0.13
2.952,-0.16
2.954,-0.205
2.956,-0.245
2.958,-0.28
2.96,-0.245
2.962,-0.21
2.964,-0.17
2.966,-0.155
2.968,-0.095
2.97,-0.13
2.972,-0.16
2.974,-0.22
2.976,-0.24
2.978,-0.315
2.98,-0.32
2.982,-0.3
2.984,-0.25
2.986,-0.155
2.988,-0.09
2.99,-0.1
2.992,-0.145
2.994,-0.225
2.996,-0.285
2.998,-0.34
3,-0.305
3.002,-0.285
3.004,-0.255
3.006,-0.195
3.008,-0.145
3.01,-0.16
3.012,-0.2
3.014,-0.26
3.016,-0.315
3.018,-0.33
3.02,-0.325
3.022,-0.26
3.024,-0.26
3.026,-0.225
3.028,-0.185
3.03,-0.17
3.032,-0.215
3.034,-0.32
3.036,-0.355
3.038,-0.325
3.04,-0.31
3.042,-0.21
3.044,-0.17
3.046,-0.135
3.048,-0.165
3.05,-0.18
3.052,-0.295
3.054,-0.41
3.056,-0.46
3.058,-0.475
3.06,-0.505
3.062,-0.385
3.064,-0.305
3.066,-0.23
3.068,-0.185
3.07,-0.075
3.072,-0.01
3.074,0.145
3.076,0.235
3.078,0.385
3.08,0.58
3.082,0.82
3.084,0.975
3.086,1.08
3.088,1.14
3.09,1.14
3.092,1.065
3.094,0.975
3.096,0.805
3.098,0.67
3.1,0.565
3.102,0.465
3.104,0.33
3.106,0.155
3.108,0.025
3.11,-0.135
3.112,-0.2
3.114,-0.195
3.116,-0.245
3.118,-0.29
3.12,-0.315
3.122,-0.24
3.124,-0.2
3.126,-0.13
3.128,-0.185
3.13,-0.23
3.132,-0.3
3.134,-0.325
3.136,-0.385
3.138,-0.375
3.14,-0.35
3.142,-0.32
3.144,-0.285
3.146,-0.165
3.148,-0.19
3.15,-0.22
3.152,-0.315
3.154,-0.315
3.156,-0.33
3.158,-0.315
3.16,-0.3
3.162,-0.26
3.164,-0.275
3.166,-0.21
3.168,-0.235
3.17,-0.265
3.172,-0.32
3.174,-0.35
3.176,-0.38
3.178,-0.32
3.18,-0.31
3.182,-0.28
3.184,-0.25
3.186,-0.195
3.188,-0.205
3.19,-0.275
3.192,-0.31
3.194,-0.375
3.196,-0.395
3.198,-0.33
3.2,-0.305
3.202,-0.235
3.204,-0.225
3.206,-0.14
3.208,-0.2
3.21,-0.245
3.212,-0.295
3.214,-0.305
3.216,-0.405
3.218,-0.41
3.22,-0.315
3.222,-0.24
3.224,-0.215
3.226,-0.195
3.228,-0.215
3.23,-0.23
3.232,-0.305
3.234,-0.3
3.236,-0.33
3.238,-0.315
3.24,-0.265
3.242,-0.245
3.244,-0.225
3.246,-0.165
3.248,-0.17
3.25,-0.2
3.252,-0.225
3.254,-0.28
3.256,-0.355
3.258,-0.33
3.26,-0.285
3.262,-0.225
3.264,-0.195
3.266,-0.125
3.268,-0.145
3.27,-0.16
3.272,-0.2
3.274,-0.245
3.276,-0.255
3.278,-0.265
3.28,-0.245
3.282,-0.185
3.284,-0.15
3.286,-0.095
3.288,-0.125
3.29,-0.18
3.292,-0.215
3.294,-0.24
3.296,-0.24
3.298,-0.21
3.3,-0.15
3.302,-0.07
3.304,-0.045
3.306,-0.045
3.308,-0.1
3.31,-0.09
3.312,-0.145
3.314,-0.215
3.316,-0.2
3.318,-0.16
3.32,-0.13
3.322,-0.085
3.324,-0.005
3.326,0.025
3.328,-0.025
3.33,-0.125
3.332,-0.175
3.334,-0.195
3.336,-0.215
3.338,-0.13
3.34,-0.125
3.342,-0.105
3.344,-0.105
3.346,-0.04
3.348,-0.055
3.35,-0.12
3.352,-0.2
3.354,-0.235
3.356,-0.23
3.358,-0.235
3.36,-0.195
3.362,-0.19
3.364,-0.15
3.366,-0.15
3.368,-0.185
3.37,-0.245
3.372,-0.265
3.374,-0.315
3.376,-0.35
3.378,-0.28
3.38,-0.23
3.382,-0.19
3.384,-0.155
3.386,-0.155
3.388,-0.205
3.39,-0.24
3.392,-0.28
3.394,-0.325
3.396,-0.34
3.398,-0.3
3.4,-0.255
3.402,-0.225
3.404,-0.17
3.406,-0.18
3.408,-0.19
3.41,-0.265
3.412,-0.265
3.414,-0.34
3.416,-0.285
3.418,-0.31
3.42,-0.305
3.422,-0.23
3.424,-0.195
3.426,-0.195
3.428,-0.245
3.43,-0.285
3.432,-0.325
3.434,-0.305
3.436,-0.29
3.438,-0.255
3.44,-0.2
3.442,-0.17
3.444,-0.13
3.446,-0.185
3.448,-0.22
3.45,-0.305
3.452,-0.31
3.454,-0.365
3.456,-0.31
3.458,-0.29
3.46,-0.225
3.462,-0.19
3.464,-0.11
3.466,-0.115
3.468,-0.205
3.47,-0.305
3.472,-0.405
3.474,-0.445
3.476,-0.395
3.478,-0.335
3.48,-0.25
3.482,-0.235
3.484,-0.15
3.486,-0.205
3.488,-0.24
3.49,-0.31
3.492,-0.325
3.494,-0.335
3.496,-0.315
3.498,-0.215
3.5,-0.19
3.502,-0.185
3.504,-0.16
3.506,-0.185
3.508,-0.225
3.51,-0.28
3.512,-0.31
3.514,-0.35
3.516,-0.315
3.518,-0.32
3.52,-0.22
3.522,-0.17
3.524,-0.21
3.526,-0.225
3.528,-0.255
3.53,-0.29
3.532,-0.285
3.534,-0.335
3.536,-0.375
3.538,-0.3
3.54,-0.2
3.542,-0.175
3.544,-0.135
3.546,-0.19
3.548,-0.265
3.55,-0.295
3.552,-0.275
3.554,-0.34
3.556,-0.32
3.558,-0.27
3.56,-0.24
3.562,-0.225
3.564,-0.19
3.566,-0.19
3.568,-0.23
3.57,-0.27
3.572,-0.29
3.574,-0.345
3.576,-0.3
3.578,-0.205
3.58,-0.18
3.582,-0.18
3.584,-0.21
3.586,-0.195
3.588,-0.26
3.59,-0.305
3.592,-0.335
3.594,-0.33
3.596,-0.29
3.598,-0.22
3.6,-0.185
3.602,-0.175
3.604,-0.165
3.606,-0.21
3.608,-0.22
3.61,-0.24
3.612,-0.26
3.614,-0.295
3.616,-0.27
3.618,-0.22
3.62,-0.115
3.622,-0.1
3.624,-0.11
3.626,-0.16
3.628,-0.225
3.63,-0.23
3.632,-0.27
3.634,-0.285
3.636,-0.27
3.638,-0.22
3.64,-0.16
3.642,-0.185
3.644,-0.18
3.646,-0.235
3.648,-0.28
3.65,-0.335
3.652,-0.335
3.654,-0.325
3.656,-0.28
3.658,-0.23
3.66,-0.18
3.662,-0.18
3.664,-0.16
3.666,-0.21
3.668,-0.275
3.67,-0.32
3.672,-0.365
3.674,-0.335
3.676,-0.29
3.678,-0.26
3.68,-0.22
3.682,-0.185
3.684,-0.19
3.686,-0.21
3.688,-0.255
3.69,-0.265
3.692,-0.295
3.694,-0.29
3.696,-0.295
3.698,-0.27
3.7,-0.24
3.702,-0.23
3.704,-0.215
3.706,-0.265
3.708,-0.315
3.71,-0.34
3.712,-0.375
3.714,-0.355
3.716,-0.355
3.718,-0.36
3.72,-0.345
3.722,-0.325
3.724,-0.35
3.726,-0.375
3.728,-0.365
3.73,-0.41
3.732,-0.415
3.734,-0.25
3.736,-0.05
3.738,0.17
3.74,0.37
3.742,0.56
3.744,0.645
3.746,0.845
3.748,0.93
3.75,0.99
3.752,1.01
3.754,1.06
3.756,1.1
3.758,1.045
3.76,0.925
3.762,0.815
3.764,0.585
3.766,0.365
3.768,0.15
3.77,-0.035
3.772,-0.16
3.774,-0.185
3.776,-0.155
3.778,-0.11
3.78,-0.065
3.782,-0.045
3.784,-0.125
3.786,-0.2
3.788,-0.35
3.79,-0.37
3.792,-0.405
3.794,-0.385
3.796,-0.345
3.798,-0.315
3.8,-0.28
3.802,-0.22
3.804,-0.27
3.806,-0.31
3.808,-0.335
3.81,-0.33
3.812,-0.32
3.814,-0.34
3.816,-0.3
3.818,-0.24
3.82,-0.26
3.822,-0.29
3.824,-0.305
3.826,-0.32
3.828,-0.37
3.83,-0.38
3.832,-0.43
3.834,-0.435
3.836,-0.365
3.838,-0.27
3.84,-0.24
3.842,-0.17
3.844,-0.18
3.846,-0.24
3.848,-0.305
3.85,-0.355
3.852,-0.4
3.854,-0.38
3.856,-0.315
3.858,-0.27
3.86,-0.285
3.862,-0.23
3.864,-0.245
3.866,-0.31
3.868,-0.325
3.87,-0.345
3.872,-0.36
3.874,-0.33
3.876,-0.305
3.878,-0.25
3.88,-0.24
3.882,-0.235
3.884,-0.26
3.886,-0.31
3.888,-0.35
3.89,-0.4
3.892,-0.42
3.894,-0.345
3.896,-0.235
3.898,-0.215
3.9,-0.225
3.902,-0.13
3.904,-0.14
3.906,-0.215
3.908,-0.23
3.91,-0.35
3.912,-0.335
3.914,-0.31
3.916,-0.27
3.918,-0.29
3.92,-0.245
3.922,-0.23
3.924,-0.25
3.926,-0.315
3.928,-0.305
3.93,-0.305
3.932,-0.28
3.934,-0.265
3.936,-0.16
3.938,-0.15
3.94,-0.115
3.942,-0.15
3.944,-0.21
3.946,-0.25
3.948,-0.265
3.95,-0.32
3.952,-0.3
3.954,-0.25
3.956,-0.145
3.958,-0.12
3.96,-0.085
3.962,-0.075
3.964,-0.055
3.966,-0.12
3.968,-0.17
3.97,-0.245
3.972,-0.195
3.974,-0.17
3.976,-0.12
3.978,-0.12
3.98,-0.08
3.982,-0.075
3.984,-0.135
3.986,-0.195
3.988,-0.215
3.99,-0.25
3.992,-0.22
3.994,-0.165
3.996,-0.115
3.998,-0.075
4,-0.05
4.002,-0.045
4.004,-0.115
4.006,-0.19
4.008,-0.205
4.01,-0.26
4.012,-0.24
4.014,-0.2
4.016,-0.125
4.018,-0.14
4.02,-0.105
4.022,-0.16
4.024,-0.145
4.026,-0.195
4.028,-0.22
4.03,-0.255
4.032,-0.27
4.034,-0.255
4.036,-0.205
4.038,-0.19
4.04,-0.11
4.042,-0.185
4.044,-0.235
4.046,-0.265
4.048,-0.295
4.05,-0.335
4.052,-0.32
4.054,-0.28
4.056,-0.195
4.058,-0.17
4.06,-0.125
4.062,-0.16
4.064,-0.215
4.066,-0.295
4.068,-0.33
4.07,-0.395
4.072,-0.375
4.074,-0.335
4.076,-0.27
4.078,-0.265
4.08,-0.21
4.082,-0.24
4.084,-0.285
4.086,-0.31
4.088,-0.305
4.09,-0.34
4.092,-0.285
4.094,-0.21
4.096,-0.16
4.098,-0.18
4.1,-0.14
4.102,-0.195
4.104,-0.285
4.106,-0.325
4.108,-0.32
4.11,-0.325
4.112,-0.295
4.114,-0.25
4.116,-0.21
4.118,-0.12
4.12,-0.065
4.122,-0.155
4.124,-0.24
4.126,-0.27
4.128,-0.27
4.13,-0.325
4.132,-0.31
4.134,-0.305
4.136,-0.27
4.138,-0.24
4.14,-0.2
4.142,-0.2
4.144,-0.18
4.146,-0.245
4.148,-0.28
4.15,-0.29
4.152,-0.275
4.154,-0.245
4.156,-0.235
4.158,-0.21
4.16,-0.2
4.162,-0.225
4.164,-0.285
4.166,-0.335
4.168,-0.345
4.17,-0.325
4.172,-0.255
4.174,-0.19
4.176,-0.155
4.178,-0.115
4.18,-0.145
4.182,-0.185
4.184,-0.24
4.186,-0.315
4.188,-0.305
4.19,-0.325
4.192,-0.29
4.194,-0.245
4.196,-0.21
4.198,-0.18
4.2,-0.12
4.202,-0.095
4.204,-0.18
4.206,-0.235
4.208,-0.3
4.21,-0.3
4.212,-0.255
4.214,-0.225
4.216,-0.195
4.218,-0.175
4.22,-0.16
4.222,-0.16
4.224,-0.25
4.226,-0.295
4.228,-0.33
4.23,-0.29
4.232,-0.26
4.234,-0.215
4.236,-0.165
4.238,-0.21
4.24,-0.2
4.242,-0.19
4.244,-0.255
4.246,-0.255
4.248,-0.33
4.25,-0.29
4.252,-0.225
4.254,-0.185
4.256,-0.16
4.258,-0.175
4.26,-0.19
4.262,-0.195
4.264,-0.27
4.266,-0.275
4.268,-0.255
4.27,-0.235
4.272,-0.22
4.274,-0.155
4.276,-0.125
4.278,-0.095
4.28,-0.155
4.282,-0.195
4.284,-0.23
4.286,-0.31
4.288,-0.325
4.29,-0.3
4.292,-0.215
4.294,-0.135
4.296,-0.12
4.298,-0.105
4.3,-0.1
4.302,-0.15
4.304,-0.205
4.306,-0.27
4.308,-0.295
4.31,-0.27
4.312,-0.26
4.314,-0.205
4.316,-0.165
4.318,-0.08
4.32,-0.065
4.322,-0.1
4.324,-0.15
4.326,-0.22
4.328,-0.295
4.33,-0.245
4.332,-0.195
4.334,-0.19
4.336,-0.17
4.338,-0.12
4.34,-0.145
4.342,-0.2
4.344,-0.265
4.346,-0.295
4.348,-0.315
4.35,-0.285
4.352,-0.25
4.354,-0.18
4.356,-0.16
4.358,-0.16
4.36,-0.16
4.362,-0.21
4.364,-0.27
4.366,-0.24
4.368,-0.285
4.37,-0.26
4.372,-0.23
4.374,-0.14
4.376,-0.155
4.378,-0.135
4.38,-0.175
4.382,-0.22
4.384,-0.255
4.386,-0.285
4.388,-0.34
4.39,-0.255
4.392,-0.235
4.394,-0.22
4.396,-0.18
4.398,-0.15
4.4,-0.155
4.402,-0.24
4.404,-0.325
4.406,-0.285
4.408,-0.31
4.41,-0.285
4.412,-0.24
4.414,-0.215
4.416,-0.18
4.418,-0.235
4.42,-0.34
4.422,-0.395
4.424,-0.435
4.426,-0.415
4.428,-0.42
4.43,-0.33
4.432,-0.265
4.434,-0.135
4.436,0.035
4.438,0.225
4.44,0.31
4.442,0.36
4.444,0.48
4.446,0.66
4.448,0.775
4.45,0.93
4.452,1.065
4.454,1.145
4.456,1.085
4.458,0.965
4.46,0.85
4.462,0.71
4.464,0.49
4.466,0.22
4.468,0.05
4.47,-0.095
4.472,-0.105
4.474,-0.14
4.476,-0.065
4.478,-0.09
4.48,-0.195
4.482,-0.235
4.484,-0.295
4.486,-0.295
4.488,-0.33
4.49,-0.29
4.492,-0.26
4.494,-0.225
4.496,-0.19
4.498,-0.155
4.5,-0.17
4.502,-0.29
4.504,-0.36
4.506,-0.33
4.508,-0.29
4.51,-0.27
4.512,-0.235
4.514,-0.21
4.516,-0.19
4.518,-0.185
4.52,-0.23
4.522,-0.285
4.524,-0.29
4.526,-0.35
4.528,-0.34
4.53,-0.29
4.532,-0.27
4.534,-0.21
4.536,-0.19
4.538,-0.2
4.54,-0.245
4.542,-0.295
4.544,-0.34
4.546,-0.36
4.548,-0.325
4.55,-0.27
4.552,-0.23
4.554,-0.235
4.556,-0.205
4.558,-0.225
4.56,-0.21
4.562,-0.25
4.564,-0.285
4.566,-0.31
4.568,-0.28
4.57,-0.2
4.572,-0.18
4.574,-0.22
4.576,-0.14
4.578,-0.12
4.58,-0.155
4.582,-0.265
4.584,-0.32
4.586,-0.375
4.588,-0.315
4.59,-0.25
4.592,-0.22
4.594,-0.145
4.596,-0.13
4.598,-0.16
4.6,-0.32
4.602,-0.3
4.604,-0.175
4.606,-0.135
4.608,-0.1
4.61,-0.145
4.612,-0.19
4.614,-0.265
4.616,-0.28
4.618,-0.29
4.62,-0.285
4.622,-0.245
4.624,-0.165
4.626,-0.165
4.628,-0.025
4.63,-0.035
4.632,-0.1
4.634,-0.165
4.636,-0.19
4.638,-0.245
4.64,-0.225
4.642,-0.2
4.644,-0.12
4.646,-0.11
4.648,-0.02
4.65,-0.075
4.652,-0.075
4.654,-0.09
4.656,-0.155
4.658,-0.17
4.66,-0.1
4.662,-0.07
4.664,-0.02
4.666,-0.05
4.668,-0.015
4.67,-0.035
4.672,-0.06
4.674,-0.15
4.676,-0.105
4.678,-0.18
4.68,-0.17
4.682,-0.085
4.684,-0.01
4.686,-0.025
4.688,0.05
4.69,0
4.692,-0.07
4.694,-0.135
4.696,-0.155
4.698,-0.22
4.7,-0.185
4.702,-0.15
4.704,-0.1
4.706,-0.115
4.708,-0.065
4.71,-0.035
4.712,-0.085
4.714,-0.14
4.716,-0.185
4.718,-0.205
4.72,-0.195
4.722,-0.15
4.724,-0.12
4.726,-0.1
4.728,-0.08
4.73,-0.115
4.732,-0.185
4.734,-0.225
4.736,-0.26
4.738,-0.275
4.74,-0.23
4.742,-0.115
4.744,-0.1
4.746,-0.065
4.748,-0.05
4.75,-0.155
4.752,-0.215
4.754,-0.285
4.756,-0.29
4.758,-0.335
4.76,-0.3
4.762,-0.22
4.764,-0.205
4.766,-0.16
4.768,-0.15
4.77,-0.17
4.772,-0.21
4.774,-0.23
4.776,-0.26
4.778,-0.255
4.78,-0.23
4.782,-0.2
4.784,-0.135
4.786,-0.125
4.788,-0.125
4.79,-0.16
4.792,-0.24
4.794,-0.28
4.796,-0.3
4.798,-0.26
4.8,-0.235
4.802,-0.19
4.804,-0.19
4.806,-0.095
4.808,-0.04
4.81,-0.155
4.812,-0.21
4.814,-0.26
4.816,-0.29
4.818,-0.28
4.82,-0.23
4.822,-0.19
4.824,-0.15
4.826,-0.125
4.828,-0.145
4.83,-0.195
4.832,-0.23
4.834,-0.23
4.836,-0.255
4.838,-0.23
4.84,-0.21
4.842,-0.165
4.844,-0.18
4.846,-0.11
4.848,-0.145
4.85,-0.2
4.852,-0.24
4.854,-0.28
4.856,-0.32
4.858,-0.28
4.86,-0.23
4.862,-0.145
4.864,-0.11
4.866,-0.07
4.868,-0.115
4.87,-0.135
4.872,-0.205
4.874,-0.24
4.876,-0.32
4.878,-0.285
4.88,-0.265
4.882,-0.195
4.884,-0.15
4.886,-0.095
4.888,-0.125
4.89,-0.14
4.892,-0.225
4.894,-0.23
4.896,-0.27
4.898,-0.19
4.9,-0.18
4.902,-0.145
4.904,-0.15
4.906,-0.115
4.908,-0.12
4.91,-0.185
4.912,-0.25
4.914,-0.265
4.916,-0.305
4.918,-0.255
4.92,-0.22
4.922,-0.175
4.924,-0.13
4.926,-0.075
4.928,-0.115
4.93,-0.185
4.932,-0.22
4.934,-0.235
4.936,-0.28
4.938,-0.275
4.94,-0.225
4.942,-0.185
4.944,-0.16
4.946,-0.11
4.948,-0.16
4.95,-0.21
4.952,-0.28
4.954,-0.285
4.956,-0.37
4.958,-0.29
4.96,-0.225
4.962,-0.12
4.964,-0.14
4.966,-0.08
4.968,-0.085
4.97,-0.14
4.972,-0.19
4.974,-0.225
4.976,-0.255
4.978,-0.21
4.98,-0.175
4.982,-0.125
4.984,-0.14
4.986,-0.075
4.988,-0.08
4.99,-0.11
4.992,-0.18
4.994,-0.205
4.996,-0.25
4.998,-0.21
5,-0.17
5.002,-0.125
5.004,-0.18
5.006,-0.15
5.008,-0.16
5.01,-0.215
5.012,-0.27
5.014,-0.315
5.016,-0.295
5.018,-0.27
5.02,-0.23
5.022,-0.2
5.024,-0.175
5.026,-0.125
5.028,-0.165
5.03,-0.24
5.032,-0.275
5.034,-0.305
5.036,-0.315
5.038,-0.3
5.04,-0.245
5.042,-0.2
5.044,-0.175
5.046,-0.145
5.048,-0.14
5.05,-0.195
5.052,-0.245
5.054,-0.275
5.056,-0.28
5.058,-0.235
5.06,-0.195
5.062,-0.21
5.064,-0.155
5.066,-0.175
5.068,-0.195
5.07,-0.245
5.072,-0.24
5.074,-0.295
5.076,-0.37
5.078,-0.29
5.08,-0.185
5.082,-0.18
5.084,-0.185
5.086,-0.14
5.088,-0.215
5.09,-0.335
5.092,-0.435
5.094,-0.485
5.096,-0.505
5.098,-0.4
5.1,-0.31
5.102,-0.215
5.104,-0.1
5.106,0.005
5.108,0.105
5.11,0.25
5.112,0.33
5.114,0.385
5.116,0.575
5.118,0.725
5.12,0.885
5.122,0.98
5.124,1.07
5.126,1.035
5.128,0.955
5.13,0.785
5.132,0.69
5.134,0.49
5.136,0.39
5.138,0.22
5.14,0.12
5.142,0.02
5.144,0.01
5.146,-0.025
5.148,-0.085
5.15,-0.175
5.152,-0.23
5.154,-0.31
5.156,-0.315
5.158,-0.245
5.16,-0.2
5.162,-0.17
5.164,-0.155
5.166,-0.165
5.168,-0.275
5.17,-0.345
5.172,-0.315
5.174,-0.325
5.176,-0.255
5.178,-0.25
5.18,-0.195
5.182,-0.21
5.184,-0.2
5.186,-0.235
5.188,-0.27
5.19,-0.32
5.192,-0.335
5.194,-0.355
5.196,-0.285
5.198,-0.265
5.2,-0.21
5.202,-0.175
5.204,-0.17
5.206,-0.22
5.208,-0.245
5.21,-0.3
5.212,-0.275
5.214,-0.33
5.216,-0.315
5.218,-0.235
5.22,-0.185
5.222,-0.18
5.224,-0.14
5.226,-0.155
5.228,-0.23
5.23,-0.305
5.232,-0.295
5.234,-0.28
5.236,-0.275
5.238,-0.25
5.24,-0.16
5.242,-0.17
5.244,-0.16
5.246,-0.19
5.248,-0.255
5.25,-0.3
5.252,-0.285
5.254,-0.31
5.256,-0.345
5.258,-0.275
5.26,-0.195
5.262,-0.19
5.264,-0.12
5.266,-0.145
5.268,-0.19
5.27,-0.27
5.272,-0.255
5.274,-0.27
5.276,-0.245
5.278,-0.21
5.28,-0.17
5.282,-0.175
5.284,-0.175
5.286,-0.195
5.288,-0.19
5.29,-0.26
5.292,-0.27
5.294,-0.285
5.296,-0.225
5.298,-0.17
5.3,-0.1
5.302,-0.085
5.304,-0.085
5.306,-0.12
5.308,-0.135
5.31,-0.2
5.312,-0.17
5.314,-0.18
5.316,-0.145
5.318,-0.095
5.32,-0.085
5.322,-0.085
5.324,-0.105
5.326,-0.095
5.328,-0.095
5.33,-0.195
5.332,-0.19
5.334,-0.175
5.336,-0.145
5.338,-0.08
5.34,-0.015
5.342,0.01
5.344,-0.055
5.346,-0.05
5.348,-0.08
5.35,-0.12
5.352,-0.14
5.354,-0.095
5.356,-0.075
5.358,-0.01
5.36,0.025
5.362,0.02
5.364,-0.025
5.366,-0.065
5.368,-0.13
5.37,-0.15
5.372,-0.165
5.374,-0.175
5.376,-0.165
5.378,-0.075
5.38,-0.065
5.382,-0.05
5.384,-0.03
5.386,-0.085
5.388,-0.09
5.39,-0.12
5.392,-0.17
5.394,-0.185
5.396,-0.165
5.398,-0.105
5.4,-0.105
5.402,-0.07
5.404,-0.115
5.406,-0.155
5.408,-0.205
5.41,-0.25
5.412,-0.29
5.414,-0.285
5.416,-0.245
5.418,-0.175
5.42,-0.16
5.422,-0.11
5.424,-0.13
5.426,-0.195
5.428,-0.255
5.43,-0.32
5.432,-0.345
5.434,-0.285
5.436,-0.25
5.438,-0.17
5.44,-0.16
5.442,-0.09
5.444,-0.125
5.446,-0.205
5.448,-0.245
5.45,-0.265
5.452,-0.305
5.454,-0.28
5.456,-0.225
5.458,-0.17
5.46,-0.165
5.462,-0.135
5.464,-0.16
5.466,-0.235
5.468,-0.285
5.47,-0.28
5.472,-0.32
5.474,-0.25
5.476,-0.24
5.478,-0.175
5.48,-0.16
5.482,-0.125
5.484,-0.15
5.486,-0.205
5.488,-0.275
5.49,-0.26
5.492,-0.35
5.494,-0.255
5.496,-0.19
5.498,-0.155
5.5,-0.115
5.502,-0.095
5.504,-0.17
5.506,-0.23
5.508,-0.29
5.51,-0.285
5.512,-0.33
5.514,-0.315
5.516,-0.265
5.518,-0.185
5.52,-0.15
5.522,-0.1
5.524,-0.12
5.526,-0.155
5.528,-0.2
5.53,-0.25
5.532,-0.29
5.534,-0.24
5.536,-0.205
5.538,-0.15
5.54,-0.17
5.542,-0.155
5.544,-0.185
5.546,-0.215
5.548,-0.25
5.55,-0.24
5.552,-0.28
5.554,-0.255
5.556,-0.245
5.558,-0.185
5.56,-0.15
5.562,-0.155
5.564,-0.22
5.566,-0.265
5.568,-0.305
5.57,-0.33
5.572,-0.31
5.574,-0.255
5.576,-0.19
5.578,-0.165
5.58,-0.155
5.582,-0.13
5.584,-0.19
5.586,-0.23
5.588,-0.24
5.59,-0.29
5.592,-0.325
5.594,-0.285
5.596,-0.22
5.598,-0.15
5.6,-0.115
5.602,-0.115
5.604,-0.145
5.606,-0.23
5.608,-0.255
5.61,-0.32
5.612,-0.35
5.614,-0.275
5.616,-0.185
5.618,-0.12
5.62,-0.085
5.622,-0.06
5.624,-0.135
5.626,-0.165
5.628,-0.255
5.63,-0.285
5.632,-0.31
5.634,-0.29
5.636,-0.245
5.638,-0.215
5.64,-0.165
5.642,-0.145
5.644,-0.175
5.646,-0.22
5.648,-0.255
5.65,-0.345
5.652,-0.34
5.654,-0.315
5.656,-0.24
5.658,-0.19
5.66,-0.14
5.662,-0.18
5.664,-0.18
5.666,-0.3
5.668,-0.3
5.67,-0.29
5.672,-0.29
5.674,-0.245
5.676,-0.185
5.678,-0.135
5.68,-0.105
5.682,-0.13
5.684,-0.175
5.686,-0.22
5.688,-0.22
5.69,-0.275
5.692,-0.255
5.694,-0.225
5.696,-0.14
5.698,-0.15
5.7,-0.13
5.702,-0.125
5.704,-0.15
5.706,-0.235
5.708,-0.29
5.71,-0.34
5.712,-0.32
5.714,-0.25
5.716,-0.23
5.718,-0.185
5.72,-0.15
5.722,-0.185
5.724,-0.23
5.726,-0.285
5.728,-0.33
5.73,-0.335
5.732,-0.32
5.734,-0.325
5.736,-0.25
5.738,-0.21
5.74,-0.155
5.742,-0.17
5.744,-0.235
5.746,-0.295
5.748,-0.35
5.75,-0.365
5.752,-0.315
5.754,-0.285
5.756,-0.21
5.758,-0.2
5.76,-0.17
5.762,-0.2
5.764,-0.225
5.766,-0.3
5.768,-0.32
5.77,-0.375
5.772,-0.335
5.774,-0.3
5.776,-0.26
5.778,-0.21
5.78,-0.19
5.782,-0.235
5.784,-0.285
5.786,-0.355
5.788,-0.42
5.79,-0.48
5.792,-0.51
5.794,-0.48
5.796,-0.335
5.798,-0.29
5.8,-0.225
5.802,-0.18
5.804,-0.105
5.806,0.005
5.808,0.145
5.81,0.21
5.812,0.405
5.814,0.635
5.816,0.83
5.818,0.955
5.82,1.1
5.822,1.135
5.824,1.085
5.826,0.98
5.828,0.895
5.83,0.715
5.832,0.65
5.834,0.57
5.836,0.435
5.838,0.275
5.84,0.14
5.842,-0.02
5.844,-0.115
5.846,-0.225
5.848,-0.22
5.85,-0.295
5.852,-0.255
5.854,-0.18
5.856,-0.07
5.858,-0.07
5.86,-0.005
5.862,-0.02
5.864,-0.085
5.866,-0.135
5.868,-0.21
5.87,-0.245
5.872,-0.265
5.874,-0.225
5.876,-0.175
5.878,-0.145
5.88,-0.1
5.882,-0.125
5.884,-0.195
5.886,-0.25
5.888,-0.28
5.89,-0.315
5.892,-0.3
5.894,-0.245
5.896,-0.175
5.898,-0.155
5.9,-0.135
5.902,-0.15
5.904,-0.205
5.906,-0.24
5.908,-0.365
5.91,-0.375
5.912,-0.335
5.914,-0.265
5.916,-0.235
5.918,-0.195
5.92,-0.17
5.922,-0.305
5.924,-0.38
5.926,-0.425
5.928,-0.415
5.93,-0.445
5.932,-0.43
5.934,-0.395
5.936,-0.295
5.938,-0.28
5.94,-0.26
5.942,-0.29
5.944,-0.35
5.946,-0.4
5.948,-0.445
5.95,-0.475
5.952,-0.425
5.954,-0.325
5.956,-0.255
5.958,-0.23
5.96,-0.21
5.962,-0.235
5.964,-0.35
5.966,-0.33
5.968,-0.36
5.97,-0.35
5.972,-0.365
5.974,-0.325
5.976,-0.255
5.978,-0.225
5.98,-0.225
5.982,-0.27
5.984,-0.33
5.986,-0.37
5.988,-0.415
5.99,-0.425
5.992,-0.365
5.994,-0.235
5.996,-0.165
5.998,-0.1
6,-0.13
6.002,-0.185
6.004,-0.255
6.006,-0.315
6.008,-0.395
6.01,-0.345
6.012,-0.31
6.014,-0.255
6.016,-0.185
6.018,-0.16
6.02,-0.175
6.022,-0.205
6.024,-0.24
6.026,-0.235
6.028,-0.33
6.03,-0.28
6.032,-0.195
6.034,-0.15
6.036,-0.105
6.038,-0.065
6.04,-0.085
6.042,-0.15
6.044,-0.185
6.046,-0.215
6.048,-0.255
6.05,-0.2
6.052,-0.19
6.054,-0.09
6.056,-0.07
6.058,-0.03
6.06,-0.05
6.062,-0.065
6.064,-0.13
6.066,-0.185
6.068,-0.275
6.07,-0.25
6.072,-0.215
6.074,-0.11
6.076,-0.1
6.078,-0.06
6.08,-0.05
6.082,-0.06
6.084,-0.165
6.086,-0.225
6.088,-0.31
6.09,-0.28
6.092,-0.24
6.094,-0.2
6.096,-0.15
6.098,-0.1
6.1,-0.075
6.102,-0.18
6.104,-0.265
6.106,-0.315
6.108,-0.365
6.11,-0.335
6.112,-0.3
6.114,-0.235
6.116,-0.2
6.118,-0.135
6.12,-0.16
6.122,-0.235
6.124,-0.275
6.126,-0.275
6.128,-0.39
6.13,-0.345
6.132,-0.32
6.134,-0.27
6.136,-0.18
6.138,-0.125
6.14,-0.17
6.142,-0.225
6.144,-0.29
6.146,-0.285
6.148,-0.375
6.15,-0.375
6.152,-0.315
6.154,-0.245
6.156,-0.19
6.158,-0.17
6.16,-0.2
6.162,-0.245
6.164,-0.315
6.166,-0.365
6.168,-0.42
6.17,-0.33
6.172,-0.31
6.174,-0.245
6.176,-0.22
6.178,-0.19
6.18,-0.19
6.182,-0.235
6.184,-0.3
6.186,-0.34
6.188,-0.385
6.19,-0.36
6.192,-0.345
6.194,-0.275
6.196,-0.2
6.198,-0.17
6.2,-0.225
6.202,-0.235
6.204,-0.255
6.206,-0.305
6.208,-0.36
6.21,-0.37
6.212,-0.34
6.214,-0.25
6.216,-0.2
6.218,-0.145
6.22,-0.21
6.222,-0.245
6.224,-0.34
6.226,-0.42
6.228,-0.39
6.23,-0.365
6.232,-0.26
6.234,-0.205
6.236,-0.17
6.238,-0.165
6.24,-0.22
6.242,-0.28
6.244,-0.33
6.246,-0.39
6.248,-0.39
6.25,-0.35
6.252,-0.285
6.254,-0.185
6.256,-0.16
6.258,-0.15
6.26,-0.16
6.262,-0.21
6.264,-0.31
6.266,-0.37
6.268,-0.355
6.27,-0.355
6.272,-0.295
6.274,-0.245
6.276,-0.165
6.278,-0.19
6.28,-0.215
6.282,-0.29
6.284,-0.32
6.286,-0.375
6.288,-0.31
6.29,-0.29
6.292,-0.23
6.294,-0.2
6.296,-0.165
6.298,-0.17
6.3,-0.195
6.302,-0.26
6.304,-0.295
6.306,-0.4
6.308,-0.355
6.31,-0.29
6.312,-0.25
6.314,-0.2
6.316,-0.125
6.318,-0.17
6.32,-0.18
6.322,-0.24
6.324,-0.275
6.326,-0.365
6.328,-0.335
6.33,-0.33
6.332,-0.26
6.334,-0.21
6.336,-0.14
6.338,-0.135
6.34,-0.115
6.342,-0.215
6.344,-0.28
6.346,-0.35
6.348,-0.315
6.35,-0.305
6.352,-0.22
6.354,-0.195
6.356,-0.105
6.358,-0.145
6.36,-0.195
6.362,-0.235
6.364,-0.26
6.366,-0.33
6.368,-0.345
6.37,-0.335
6.372,-0.22
6.374,-0.155
6.376,-0.055
6.378,-0.06
6.38,-0.115
6.382,-0.185
6.384,-0.21
6.386,-0.26
6.388,-0.27
6.39,-0.27
6.392,-0.165
6.394,-0.09
6.396,-0.005
6.398,-0.04
6.4,-0.095
6.402,-0.145
6.404,-0.215
6.406,-0.275
6.408,-0.245
6.41,-0.195
6.412,-0.13
6.414,-0.125
6.416,-0.045
6.418,-0.075
6.42,-0.12
6.422,-0.205
6.424,-0.225
6.426,-0.265
6.428,-0.265
6.43,-0.245
6.432,-0.17
6.434,-0.18
6.436,-0.115
6.438,-0.115
6.44,-0.175
6.442,-0.265
6.444,-0.315
6.446,-0.355
6.448,-0.32
6.45,-0.265
6.452,-0.2
6.454,-0.18
6.456,-0.11
6.458,-0.12
6.46,-0.22
6.462,-0.235
6.464,-0.305
6.466,-0.365
6.468,-0.355
6.47,-0.3
6.472,-0.23
6.474,-0.21
6.476,-0.155
6.478,-0.145
6.48,-0.185
6.482,-0.26
6.484,-0.305
6.486,-0.355
6.488,-0.315
6.49,-0.225
6.492,-0.225
6.494,-0.21
6.496,-0.155
6.498,-0.22
6.5,-0.325
6.502,-0.425
6.504,-0.495
6.506,-0.54
6.508,-0.45
6.51,-0.325
6.512,-0.25
6.514,-0.06
6.516,0.065
6.518,0.27
6.52,0.3
6.522,0.4
6.524,0.5
6.526,0.585
6.528,0.72
6.53,0.905
6.532,1.06
6.534,1.175
6.536,1.23
6.538,1.14
6.54,0.935
6.542,0.79
6.544,0.6
6.546,0.385
6.548,0.17
6.55,0.07
6.552,0
6.554,-0.045
6.556,-0.065
6.558,-0.135
6.56,-0.22
6.562,-0.25
6.564,-0.33
6.566,-0.345
6.568,-0.325
6.57,-0.265
6.572,-0.21
6.574,-0.125
6.576,-0.15
6.578,-0.18
6.58,-0.275
6.582,-0.33
6.584,-0.43
6.586,-0.415
6.588,-0.4
6.59,-0.31
6.592,-0.26
6.594,-0.15
6.596,-0.145
6.598,-0.175
6.6,-0.24
6.602,-0.34
6.604,-0.39
6.606,-0.415
6.608,-0.38
6.61,-0.295
6.612,-0.245
6.614,-0.185
6.616,-0.225
6.618,-0.235
6.62,-0.265
6.622,-0.25
6.624,-0.35
6.626,-0.385
6.628,-0.41
6.63,-0.315
6.632,-0.245
6.634,-0.175
6.636,-0.235
6.638,-0.29
6.64,-0.31
6.642,-0.335
6.644,-0.445
6.646,-0.405
6.648,-0.395
6.65,-0.31
6.652,-0.275
6.654,-0.135
6.656,-0.165
6.658,-0.225
6.66,-0.325
6.662,-0.355
6.664,-0.43
6.666,-0.385
6.668,-0.355
6.67,-0.275
6.672,-0.28
6.674,-0.195
6.676,-0.18
6.678,-0.205
6.68,-0.255
6.682,-0.31
6.684,-0.39
6.686,-0.35
6.688,-0.345
6.69,-0.315
6.692,-0.22
6.694,-0.165
6.696,-0.2
6.698,-0.22
6.7,-0.28
6.702,-0.345
6.704,-0.38
6.706,-0.34
6.708,-0.3
6.71,-0.225
6.712,-0.2
6.714,-0.14
6.716,-0.135
6.718,-0.18
6.72,-0.275
6.722,-0.325
6.724,-0.335
6.726,-0.335
6.728,-0.285
6.73,-0.205
6.732,-0.165
6.734,-0.085
6.736,-0.11
6.738,-0.165
6.74,-0.25
6.742,-0.295
6.744,-0.355
6.746,-0.325
6.748,-0.235
6.75,-0.185
6.752,-0.12
6.754,-0.045
6.756,-0.02
6.758,-0.07
6.76,-0.17
6.762,-0.215
6.764,-0.245
6.766,-0.215
6.768,-0.195
6.77,-0.125
6.772,-0.065
6.774,-0.025
6.776,-0.05
6.778,-0.125
6.78,-0.195
6.782,-0.285
6.784,-0.31
6.786,-0.26
6.788,-0.2
6.79,-0.13
6.792,-0.125
6.794,-0.07
6.796,-0.09
6.798,-0.12
6.8,-0.145
6.802,-0.235
6.804,-0.355
6.806,-0.33
6.808,-0.32
6.81,-0.265
6.812,-0.2
6.814,-0.11
6.816,-0.185
6.818,-0.205
6.82,-0.275
6.822,-0.36
6.824,-0.405
6.826,-0.37
6.828,-0.315
6.83,-0.26
6.832,-0.215
6.834,-0.205
6.836,-0.225
6.838,-0.305
6.84,-0.335
6.842,-0.41
6.844,-0.38
6.846,-0.355
6.848,-0.31
6.85,-0.255
6.852,-0.16
6.854,-0.17
6.856,-0.215
6.858,-0.3
6.86,-0.355
6.862,-0.405
6.864,-0.4
6.866,-0.39
6.868,-0.315
6.87,-0.25
6.872,-0.18
6.874,-0.17
6.876,-0.23
6.878,-0.31
6.88,-0.27
6.882,-0.38
6.884,-0.41
6.886,-0.355
6.888,-0.29
6.89,-0.265
6.892,-0.185
6.894,-0.17
6.896,-0.2
6.898,-0.265
6.9,-0.325
6.902,-0.395
6.904,-0.375
6.906,-0.38
6.908,-0.33
6.91,-0.295
6.912,-0.225
6.914,-0.235
6.916,-0.23
6.918,-0.29
6.92,-0.365
6.922,-0.445
6.924,-0.395
6.926,-0.36
6.928,-0.3
6.93,-0.25
6.932,-0.16
6.934,-0.205
6.936,-0.24
6.938,-0.315
6.94,-0.355
6.942,-0.455
6.944,-0.385
6.946,-0.35
6.948,-0.29
6.95,-0.19
6.952,-0.17
6.954,-0.16
6.956,-0.23
6.958,-0.29
6.96,-0.31
6.962,-0.41
6.964,-0.415
6.966,-0.35
6.968,-0.265
6.97,-0.235
6.972,-0.165
6.974,-0.19
6.976,-0.19
6.978,-0.245
6.98,-0.285
6.982,-0.335
6.984,-0.345
6.986,-0.405
6.988,-0.295
6.99,-0.255
6.992,-0.19
6.994,-0.205
6.996,-0.27
6.998,-0.315
7,-0.33
7.002,-0.42
7.004,-0.385
7.006,-0.34
7.008,-0.29
7.01,-0.27
7.012,-0.175
7.014,-0.18
7.016,-0.225
7.018,-0.285
7.02,-0.345
7.022,-0.435
7.024,-0.41
7.026,-0.34
7.028,-0.315
7.03,-0.27
7.032,-0.14
7.034,-0.17
7.036,-0.195
7.038,-0.26
7.04,-0.34
7.042,-0.435
7.044,-0.405
7.046,-0.345
7.048,-0.28
7.05,-0.205
7.052,-0.14
7.054,-0.165
7.056,-0.275
7.058,-0.35
7.06,-0.35
7.062,-0.44
7.064,-0.37
7.066,-0.305
7.068,-0.21
7.07,-0.14
7.072,-0.1
7.074,-0.16
7.076,-0.225
7.078,-0.28
7.08,-0.35
7.082,-0.39
7.084,-0.39
7.086,-0.31
7.088,-0.215
7.09,-0.17
7.092,-0.14
7.094,-0.15
7.096,-0.205
7.098,-0.275
7.1,-0.335
7.102,-0.39
7.104,-0.345
7.106,-0.29
7.108,-0.225
7.11,-0.185
7.112,-0.175
7.114,-0.21
7.116,-0.245
7.118,-0.3
7.12,-0.375
7.122,-0.38
7.124,-0.335
7.126,-0.245
7.128,-0.23
7.13,-0.18
7.132,-0.18
7.134,-0.21
7.136,-0.305
7.138,-0.355
7.14,-0.435
7.142,-0.43
7.144,-0.405
7.146,-0.33
7.148,-0.26
7.15,-0.195
7.152,-0.14
7.154,-0.185
7.156,-0.27
7.158,-0.315
7.16,-0.4
7.162,-0.385
7.164,-0.32
7.166,-0.305
7.168,-0.305
7.17,-0.235
7.172,-0.22
7.174,-0.215
7.176,-0.275
7.178,-0.34
7.18,-0.4
7.182,-0.4
7.184,-0.37
7.186,-0.315
7.188,-0.255
7.19,-0.22
7.192,-0.275
7.194,-0.355
7.196,-0.435
7.198,-0.49
7.2,-0.55
7.202,-0.525
7.204,-0.39
7.206,-0.26
7.208,-0.165
7.21,0.015
7.212,0.1
7.214,0.2
7.216,0.24
7.218,0.3
7.22,0.345
7.222,0.505
7.224,0.63
7.226,0.805
7.228,0.9
7.23,1.025
7.232,0.935
7.234,0.81
7.236,0.635
7.238,0.465
7.24,0.22
7.242,0.025
7.244,-0.105
7.246,-0.13
7.248,-0.185
7.25,-0.1
7.252,-0.13
7.254,-0.22
7.256,-0.305
7.258,-0.405
7.26,-0.41
7.262,-0.445
7.264,-0.37
7.266,-0.25
7.268,-0.245
7.27,-0.18
7.272,-0.245
7.274,-0.295
7.276,-0.34
7.278,-0.335
7.28,-0.45
7.282,-0.505
7.284,-0.415
7.286,-0.325
7.288,-0.255
7.29,-0.165
7.292,-0.215
7.294,-0.255
7.296,-0.33
7.298,-0.37
7.3,-0.48
7.302,-0.47
7.304,-0.39
7.306,-0.34
7.308,-0.26
7.31,-0.205
7.312,-0.22
7.314,-0.285
7.316,-0.35
7.318,-0.375
7.32,-0.435
7.322,-0.445
7.324,-0.375
7.326,-0.275
7.328,-0.19
7.33,-0.125
7.332,-0.195
7.334,-0.305
7.336,-0.375
7.338,-0.43
7.34,-0.47
7.342,-0.41
7.344,-0.32
7.346,-0.255
7.348,-0.21
7.35,-0.205
7.352,-0.235
7.354,-0.28
7.356,-0.305
7.358,-0.365
7.36,-0.475
7.362,-0.425
7.364,-0.37
7.366,-0.3
7.368,-0.225
7.37,-0.16
7.372,-0.175
7.374,-0.235
7.376,-0.375
7.378,-0.41
7.38,-0.43
7.382,-0.41
7.384,-0.355
7.386,-0.29
7.388,-0.225
7.39,-0.17
7.392,-0.23
7.394,-0.245
7.396,-0.305
7.398,-0.315
7.4,-0.38
7.402,-0.335
7.404,-0.26
7.406,-0.23
7.408,-0.155
7.41,-0.155
7.412,-0.165
7.414,-0.23
7.416,-0.265
7.418,-0.3
7.42,-0.28
7.422,-0.27
7.424,-0.2
7.426,-0.155
7.428,-0.11
7.43,-0.11
7.432,-0.155
7.434,-0.18
7.436,-0.235
7.438,-0.325
7.44,-0.28
7.442,-0.3
7.444,-0.205
7.446,-0.125
7.448,-0.01
7.45,-0.02
7.452,0.01
7.454,-0.04
7.456,-0.105
7.458,-0.295
7.46,-0.305
7.462,-0.255
7.464,-0.22
7.466,-0.16
7.468,-0.065
7.47,-0.05
7.472,-0.075
7.474,-0.145
7.476,-0.18
7.478,-0.255
7.48,-0.27
7.482,-0.255
7.484,-0.195
7.486,-0.145
7.488,-0.055
7.49,-0.065
7.492,-0.125
7.494,-0.215
7.496,-0.29
7.498,-0.37
7.5,-0.315
7.502,-0.285
7.504,-0.235
7.506,-0.215
7.508,-0.08
7.51,-0.055
7.512,-0.085
7.514,-0.175
7.516,-0.23
7.518,-0.36
7.52,-0.44
7.522,-0.41
7.524,-0.325
7.526,-0.29
7.528,-0.2
7.53,-0.185
7.532,-0.215
7.534,-0.305
7.536,-0.35
7.538,-0.41
7.54,-0.36
7.542,-0.365
7.544,-0.3
7.546,-0.285
7.548,-0.175
7.55,-0.205
7.552,-0.23
7.554,-0.32
7.556,-0.35
7.558,-0.45
7.56,-0.445
7.562,-0.36
7.564,-0.255
7.566,-0.255
7.568,-0.12
7.57,-0.18
7.572,-0.23
7.574,-0.29
7.576,-0.31
7.578,-0.405
7.58,-0.4
7.582,-0.36
7.584,-0.285
7.586,-0.26
7.588,-0.18
7.59,-0.19
7.592,-0.24
7.594,-0.3
7.596,-0.34
7.598,-0.415
7.6,-0.43
7.602,-0.385
7.604,-0.305
7.606,-0.275
7.608,-0.195
7.61,-0.205
7.612,-0.29
7.614,-0.335
7.616,-0.39
7.618,-0.465
7.62,-0.42
7.622,-0.375
7.624,-0.29
7.626,-0.25
7.628,-0.14
7.63,-0.165
7.632,-0.29
7.634,-0.335
7.636,-0.385
7.638,-0.435
7.64,-0.42
7.642,-0.305
7.644,-0.3
7.646,-0.24
7.648,-0.17
7.65,-0.23
7.652,-0.25
7.654,-0.32
7.656,-0.37
7.658,-0.44
7.66,-0.365
7.662,-0.28
7.664,-0.22
7.666,-0.21
7.668,-0.155
7.67,-0.165
7.672,-0.26
7.674,-0.32
7.676,-0.35
7.678,-0.4
7.68,-0.36
7.682,-0.33
7.684,-0.235
7.686,-0.2
7.688,-0.18
7.69,-0.19
7.692,-0.245
7.694,-0.35
7.696,-0.425
7.698,-0.46
7.7,-0.405
7.702,-0.37
7.704,-0.275
7.706,-0.22
7.708,-0.17
7.71,-0.165
7.712,-0.26
7.714,-0.265
7.716,-0.375
7.718,-0.365
7.72,-0.355
7.722,-0.34
7.724,-0.26
7.726,-0.245
7.728,-0.225
7.73,-0.23
7.732,-0.32
7.734,-0.35
7.736,-0.415
7.738,-0.38
7.74,-0.34
7.742,-0.245
7.744,-0.225
7.746,-0.15
7.748,-0.115
7.75,-0.15
7.752,-0.265
7.754,-0.32
7.756,-0.415
7.758,-0.405
7.76,-0.34
7.762,-0.275
7.764,-0.19
7.766,-0.105
7.768,-0.095
7.77,-0.11
7.772,-0.205
7.774,-0.295
7.776,-0.39
7.778,-0.38
7.78,-0.355
7.782,-0.305
7.784,-0.295
7.786,-0.205
7.788,-0.18
7.79,-0.22
7.792,-0.285
7.794,-0.31
7.796,-0.405
7.798,-0.385
7.8,-0.32
7.802,-0.29
7.804,-0.275
7.806,-0.18
7.808,-0.21
7.81,-0.26
7.812,-0.3
7.814,-0.3
7.816,-0.41
7.818,-0.445
7.82,-0.395
7.822,-0.31
7.824,-0.285
7.826,-0.205
7.828,-0.215
7.83,-0.245
7.832,-0.305
7.834,-0.37
7.836,-0.45
7.838,-0.42
7.84,-0.405
7.842,-0.295
7.844,-0.23
7.846,-0.11
7.848,-0.16
7.85,-0.22
7.852,-0.285
7.854,-0.335
7.856,-0.41
7.858,-0.445
7.86,-0.405
7.862,-0.36
7.864,-0.405
7.866,-0.37
7.868,-0.4
7.87,-0.385
7.872,-0.43
7.874,-0.4
7.876,-0.44
7.878,-0.305
7.88,-0.105
7.882,0.095
7.884,0.25
7.886,0.475
7.888,0.61
7.89,0.705
7.892,0.78
7.894,0.795
7.896,0.805
7.898,0.86
7.9,0.91
7.902,0.925
7.904,0.825
7.906,0.785
7.908,0.625
7.91,0.365
7.912,0.11
7.914,-0.09
7.916,-0.295
7.918,-0.345
7.92,-0.28
7.922,-0.245
7.924,-0.21
7.926,-0.16
7.928,-0.185
7.93,-0.245
7.932,-0.315
7.934,-0.395
7.936,-0.44
7.938,-0.42
7.94,-0.365
7.942,-0.245
7.944,-0.24
7.946,-0.215
7.948,-0.26
7.95,-0.36
7.952,-0.415
7.954,-0.44
7.956,-0.42
7.958,-0.385
7.96,-0.325
7.962,-0.265
7.964,-0.255
7.966,-0.205
7.968,-0.23
7.97,-0.335
7.972,-0.4
7.974,-0.45
7.976,-0.485
7.978,-0.425
7.98,-0.355
7.982,-0.33
7.984,-0.25
7.986,-0.185
7.988,-0.245
7.99,-0.285
7.992,-0.33
7.994,-0.43
7.996,-0.47
7.998,-0.445
8,-0.35
8.002,-0.285
8.004,-0.215
8.006,-0.23
8.008,-0.27
8.01,-0.345
8.012,-0.41
8.014,-0.475
8.016,-0.46
8.018,-0.425
8.02,-0.345
8.022,-0.295
8.024,-0.2
8.026,-0.195
8.028,-0.2
8.03,-0.275
8.032,-0.355
8.034,-0.45
8.036,-0.4
8.038,-0.43
8.04,-0.36
8.042,-0.315
8.044,-0.26
8.046,-0.19
8.048,-0.205
8.05,-0.3
8.052,-0.35
8.054,-0.43
8.056,-0.385
8.058,-0.345
8.06,-0.275
8.062,-0.27
8.064,-0.225
8.066,-0.205
8.068,-0.23
8.07,-0.285
8.072,-0.315
8.074,-0.42
8.076,-0.39
8.078,-0.315
8.08,-0.24
8.082,-0.21
8.084,-0.09
8.086,-0.125
8.088,-0.16
8.09,-0.215
8.092,-0.275
8.094,-0.42
8.096,-0.375
8.098,-0.355
8.1,-0.235
8.102,-0.21
8.104,-0.09
8.106,-0.09
8.108,-0.135
8.11,-0.185
8.112,-0.22
8.114,-0.295
8.116,-0.285
8.118,-0.25
8.12,-0.155
8.122,-0.13
8.124,-0.045
8.126,-0.06
8.128,-0.135
8.13,-0.185
8.132,-0.245
8.134,-0.345
8.136,-0.275
8.138,-0.16
8.14,-0.145
8.142,-0.14
8.144,-0.025
8.146,-0.08
8.148,-0.135
8.15,-0.215
8.152,-0.265
8.154,-0.335
8.156,-0.33
8.158,-0.285
8.16,-0.185
8.162,-0.135
8.164,-0.09
8.166,-0.13
8.168,-0.15
8.17,-0.24
8.172,-0.265
8.174,-0.345
8.176,-0.34
8.178,-0.35
8.18,-0.32
8.182,-0.295
8.184,-0.17
8.186,-0.17
8.188,-0.24
8.19,-0.365
8.192,-0.4
8.194,-0.46
8.196,-0.41
8.198,-0.335
8.2,-0.255
8.202,-0.23
8.204,-0.155
8.206,-0.19
8.208,-0.26
8.21,-0.315
8.212,-0.36
8.214,-0.425
8.216,-0.425
8.218,-0.36
8.22,-0.31
8.222,-0.305
8.224,-0.195
8.226,-0.215
8.228,-0.27
8.23,-0.345
8.232,-0.41
8.234,-0.425
8.236,-0.385
8.238,-0.345
8.24,-0.275
8.242,-0.225
8.244,-0.15
8.246,-0.205
8.248,-0.28
8.25,-0.34
8.252,-0.375
8.254,-0.405
8.256,-0.38
8.258,-0.315
8.26,-0.23
8.262,-0.205
8.264,-0.195
8.266,-0.23
8.268,-0.29
8.27,-0.38
8.272,-0.47
8.274,-0.46
8.276,-0.415
8.278,-0.33
8.28,-0.28
8.282,-0.275
8.284,-0.21
8.286,-0.265
8.288,-0.26
8.29,-0.29
8.292,-0.37
8.294,-0.41
8.296,-0.38
8.298,-0.325
8.3,-0.32
8.302,-0.245
8.304,-0.24
8.306,-0.26
8.308,-0.3
8.31,-0.36
8.312,-0.4
8.314,-0.425
8.316,-0.36
8.318,-0.31
8.32,-0.28
8.322,-0.19
8.324,-0.175
8.326,-0.195
8.328,-0.27
8.33,-0.33
8.332,-0.42
8.334,-0.4
8.336,-0.415
8.338,-0.33
8.34,-0.255
8.342,-0.15
8.344,-0.16
8.346,-0.225
8.348,-0.29
8.35,-0.32
8.352,-0.425
8.354,-0.38
8.356,-0.33
8.358,-0.25
8.36,-0.27
8.362,-0.17
8.364,-0.19
8.366,-0.26
8.368,-0.345
8.37,-0.325
8.372,-0.395
8.374,-0.39
8.376,-0.37
8.378,-0.275
8.38,-0.205
8.382,-0.21
8.384,-0.21
8.386,-0.21
8.388,-0.31
8.39,-0.34
8.392,-0.415
8.394,-0.405
8.396,-0.31
8.398,-0.275
8.4,-0.29
8.402,-0.21
8.404,-0.21
8.406,-0.25
8.408,-0.315
8.41,-0.34
8.412,-0.41
8.414,-0.365
8.416,-0.275
8.418,-0.28
8.42,-0.245
8.422,-0.14
8.424,-0.18
8.426,-0.235
8.428,-0.29
8.43,-0.34
8.432,-0.42
8.434,-0.395
8.436,-0.325
8.438,-0.26
8.44,-0.21
8.442,-0.12
8.444,-0.14
8.446,-0.205
8.448,-0.26
8.45,-0.265
8.452,-0.37
8.454,-0.365
8.456,-0.3
8.458,-0.255
8.46,-0.21
8.462,-0.13
8.464,-0.115
8.466,-0.175
8.468,-0.24
8.47,-0.285
8.472,-0.39
8.474,-0.41
8.476,-0.395
8.478,-0.31
8.48,-0.25
8.482,-0.175
8.484,-0.18
8.486,-0.25
8.488,-0.31
8.49,-0.32
8.492,-0.435
8.494,-0.41
8.496,-0.34
8.498,-0.25
8.5,-0.255
8.502,-0.215
8.504,-0.2
8.506,-0.25
8.508,-0.31
8.51,-0.39
8.512,-0.465
8.514,-0.445
8.516,-0.365
8.518,-0.28
8.52,-0.225
8.522,-0.16
8.524,-0.205
8.526,-0.275
8.528,-0.32
8.53,-0.37
8.532,-0.44
8.534,-0.425
8.536,-0.355
8.538,-0.32
8.54,-0.255
8.542,-0.16
8.544,-0.215
8.546,-0.27
8.548,-0.37
8.55,-0.5
8.552,-0.625
8.554,-0.605
8.556,-0.51
8.558,-0.38
8.56,-0.31
8.562,-0.245
8.564,-0.185
8.566,-0.14
8.568,-0.055
8.57,0.06
8.572,0.19
8.574,0.37
8.576,0.605
8.578,0.815
8.58,1
8.582,1.12
8.584,1.105
8.586,1.03
8.588,0.945
8.59,0.8
8.592,0.645
8.594,0.54
8.596,0.455
8.598,0.315
8.6,0.235
8.602,0.105
8.604,-0.065
8.606,-0.17
8.608,-0.28
8.61,-0.38
8.612,-0.41
8.614,-0.375
8.616,-0.265
8.618,-0.26
8.62,-0.215
8.622,-0.21
8.624,-0.225
8.626,-0.285
8.628,-0.345
8.63,-0.435
8.632,-0.435
8.634,-0.435
8.636,-0.355
8.638,-0.34
8.64,-0.285
8.642,-0.295
8.644,-0.305
8.646,-0.365
8.648,-0.375
8.65,-0.41
8.652,-0.405
8.654,-0.42
8.656,-0.32
8.658,-0.26
8.66,-0.175
8.662,-0.225
8.664,-0.265
8.666,-0.34
8.668,-0.45
8.67,-0.54
8.672,-0.47
8.674,-0.445
8.676,-0.33
8.678,-0.32
8.68,-0.21
8.682,-0.21
8.684,-0.265
8.686,-0.35
8.688,-0.395
8.69,-0.47
8.692,-0.45
8.694,-0.41
8.696,-0.325
8.698,-0.36
8.7,-0.245
8.702,-0.22
8.704,-0.27
8.706,-0.35
8.708,-0.41
8.71,-0.48
8.712,-0.435
8.714,-0.375
8.716,-0.315
8.718,-0.275
8.72,-0.18
8.722,-0.23
8.724,-0.3
8.726,-0.385
8.728,-0.43
8.73,-0.465
8.732,-0.44
8.734,-0.41
8.736,-0.31
8.738,-0.265
8.74,-0.14
8.742,-0.18
8.744,-0.245
8.746,-0.33
8.748,-0.34
8.75,-0.41
8.752,-0.41
8.754,-0.365
8.756,-0.325
8.758,-0.24
8.76,-0.15
8.762,-0.175
8.764,-0.205
8.766,-0.285
8.768,-0.325
8.77,-0.38
8.772,-0.325
8.774,-0.27
8.776,-0.225
8.778,-0.165
8.78,-0.15
8.782,-0.155
8.784,-0.22
8.786,-0.29
8.788,-0.325
8.79,-0.375
8.792,-0.32
8.794,-0.28
8.796,-0.2
8.798,-0.12
8.8,-0.055
8.802,-0.065
8.804,-0.145
8.806,-0.22
8.808,-0.295
8.81,-0.34
8.812,-0.305
8.814,-0.26
8.816,-0.2
8.818,-0.125
8.82,-0.065
8.822,-0.09
8.824,-0.16
8.826,-0.175
8.828,-0.225
8.83,-0.295
8.832,-0.275
8.834,-0.22
8.836,-0.19
8.838,-0.155
8.84,-0.08
8.842,-0.095
8.844,-0.185
8.846,-0.255
8.848,-0.315
8.85,-0.325
8.852,-0.26
8.854,-0.22
8.856,-0.185
8.858,-0.13
8.86,-0.08
8.862,-0.15
8.864,-0.265
8.866,-0.37
8.868,-0.455
8.87,-0.45
8.872,-0.4
8.874,-0.325
8.876,-0.285
8.878,-0.19
8.88,-0.145
8.882,-0.185
8.884,-0.25
8.886,-0.315
8.888,-0.4
8.89,-0.45
8.892,-0.385
8.894,-0.31
8.896,-0.29
8.898,-0.21
8.9,-0.215
8.902,-0.28
8.904,-0.33
8.906,-0.36
8.908,-0.43
8.91,-0.43
8.912,-0.4
8.914,-0.315
8.916,-0.225
8.918,-0.185
8.92,-0.205
8.922,-0.265
8.924,-0.335
8.926,-0.365
8.928,-0.46
8.93,-0.44
8.932,-0.415
8.934,-0.325
8.936,-0.265
8.938,-0.165
8.94,-0.185
8.942,-0.195
8.944,-0.275
8.946,-0.365
8.948,-0.42
8.95,-0.43
8.952,-0.415
8.954,-0.33
8.956,-0.265
8.958,-0.21
8.96,-0.185
8.962,-0.215
8.964,-0.27
8.966,-0.3
8.968,-0.385
8.97,-0.365
8.972,-0.39
8.974,-0.315
8.976,-0.31
8.978,-0.205
8.98,-0.255
8.982,-0.295
8.984,-0.32
8.986,-0.345
8.988,-0.435
8.99,-0.375
8.992,-0.38
8.994,-0.29
8.996,-0.23
8.998,-0.185
9,-0.225
9.002,-0.27
9.004,-0.345
9.006,-0.385
9.008,-0.455
9.01,-0.415
9.012,-0.39
9.014,-0.3
9.016,-0.245
9.018,-0.14
9.02,-0.155
9.022,-0.19
9.024,-0.295
9.026,-0.34
9.028,-0.475
9.03,-0.44
9.032,-0.4
9.034,-0.295
9.036,-0.295
9.038,-0.185
9.04,-0.19
9.042,-0.21
9.044,-0.28
9.046,-0.295
9.048,-0.385
9.05,-0.39
9.052,-0.33
9.054,-0.255
9.056,-0.235
9.058,-0.2
9.06,-0.21
9.062,-0.28
9.064,-0.33
9.066,-0.375
9.068,-0.435
9.07,-0.355
9.072,-0.27
9.074,-0.215
9.076,-0.185
9.078,-0.115
9.08,-0.175
9.082,-0.265
9.084,-0.34
9.086,-0.4
9.088,-0.475
9.09,-0.45
9.092,-0.37
9.094,-0.26
9.096,-0.2
9.098,-0.14
9.1,-0.195
9.102,-0.285
9.104,-0.32
9.106,-0.365
9.108,-0.445
9.11,-0.445
9.112,-0.335
9.114,-0.245
9.116,-0.225
9.118,-0.175
9.12,-0.18
9.122,-0.23
9.124,-0.27
9.126,-0.325
9.128,-0.425
9.13,-0.42
9.132,-0.315
9.134,-0.26
9.136,-0.185
9.138,-0.125
9.14,-0.24
9.142,-0.27
9.144,-0.315
9.146,-0.36
9.148,-0.345
9.15,-0.325
9.152,-0.225
9.154,-0.16
9.156,-0.175
9.158,-0.095
9.16,-0.14
9.162,-0.205
9.164,-0.28
9.166,-0.34
9.168,-0.345
9.17,-0.38
9.172,-0.355
9.174,-0.27
9.176,-0.21
9.178,-0.145
9.18,-0.185
9.182,-0.24
9.184,-0.31
9.186,-0.39
9.188,-0.395
9.19,-0.375
9.192,-0.32
9.194,-0.305
9.196,-0.205
9.198,-0.2
9.2,-0.245
9.202,-0.315
9.204,-0.35
9.206,-0.43
9.208,-0.415
9.21,-0.39
9.212,-0.295
9.214,-0.26
9.216,-0.165
9.218,-0.115
9.22,-0.19
9.222,-0.28
9.224,-0.32
9.226,-0.435
9.228,-0.47
9.23,-0.43
9.232,-0.315
9.234,-0.255
9.236,-0.17
9.238,-0.19
9.24,-0.22
9.242,-0.265
9.244,-0.35
9.246,-0.48
9.248,-0.485
9.25,-0.48
9.252,-0.47
9.254,-0.465
9.256,-0.34
9.258,-0.345
9.26,-0.335
9.262,-0.31
9.264,-0.315
9.266,-0.28
9.268,-0.08
9.27,0.125
9.272,0.265
9.274,0.435
9.276,0.69
9.278,0.795
9.28,0.875
9.282,0.89
9.284,0.89
9.286,0.805
9.288,0.855
9.29,0.835
9.292,0.755
9.294,0.655
9.296,0.6
9.298,0.405
9.3,0.16
9.302,-0.07
9.304,-0.205
9.306,-0.37
9.308,-0.38
9.31,-0.365
9.312,-0.285
9.314,-0.26
9.316,-0.15
9.318,-0.185
9.32,-0.23
9.322,-0.3
9.324,-0.31
9.326,-0.43
9.328,-0.435
9.33,-0.37
9.332,-0.305
9.334,-0.28
9.336,-0.21
9.338,-0.23
9.34,-0.285
9.342,-0.36
9.344,-0.345
9.346,-0.455
9.348,-0.485
9.35,-0.4
9.352,-0.3
9.354,-0.245
9.356,-0.17
9.358,-0.195
9.36,-0.235
9.362,-0.335
9.364,-0.365
9.366,-0.435
9.368,-0.42
9.37,-0.36
9.372,-0.3
9.374,-0.28
9.376,-0.195
9.378,-0.215
9.38,-0.285
9.382,-0.32
9.384,-0.32
9.386,-0.39
9.388,-0.35
9.39,-0.38
9.392,-0.315
9.394,-0.25
9.396,-0.21
9.398,-0.235
9.4,-0.3
9.402,-0.3
9.404,-0.38
9.406,-0.415
9.408,-0.435
9.41,-0.37
9.412,-0.3
9.414,-0.215
9.416,-0.145
9.418,-0.155
9.42,-0.235
9.422,-0.325
9.424,-0.4
9.426,-0.45
9.428,-0.425
9.43,-0.345
9.432,-0.28
9.434,-0.225
9.436,-0.2
9.438,-0.215
9.44,-0.265
9.442,-0.335
9.444,-0.37
9.446,-0.395
9.448,-0.36
9.45,-0.26
9.452,-0.22
9.454,-0.185
9.456,-0.145
9.458,-0.18
9.46,-0.205
9.462,-0.25
9.464,-0.33
9.466,-0.325
9.468,-0.275
9.47,-0.185
9.472,-0.195
9.474,-0.125
9.476,-0.125
9.478,-0.115
9.48,-0.215
9.482,-0.265
9.484,-0.33
9.486,-0.33
9.488,-0.38
9.49,-0.22
9.492,-0.165
9.494,-0.085
9.496,-0.07
9.498,-0.09
9.5,-0.15
9.502,-0.18
9.504,-0.3
9.506,-0.255
9.508,-0.21
9.51,-0.105
9.512,-0.13
9.514,-0.015
9.516,-0.01
9.518,-0.1
9.52,-0.15
9.522,-0.245
9.524,-0.295
9.526,-0.245
9.528,-0.245
9.53,-0.21
9.532,-0.095
9.534,0
9.536,-0.05
9.538,-0.08
9.54,-0.195
9.542,-0.245
9.544,-0.34
9.546,-0.3
9.548,-0.25
9.55,-0.16
9.552,-0.12
9.554,-0.025
9.556,-0.03
9.558,-0.065
9.56,-0.19
9.562,-0.295
9.564,-0.41
9.566,-0.365
9.568,-0.34
9.57,-0.265
9.572,-0.21
9.574,-0.08
9.576,-0.14
9.578,-0.225
9.58,-0.31
9.582,-0.31
9.584,-0.425
9.586,-0.365
9.588,-0.365
9.59,-0.3
9.592,-0.275
9.594,-0.195
9.596,-0.195
9.598,-0.225
9.6,-0.285
9.602,-0.3
9.604,-0.4
9.606,-0.385
9.608,-0.355
9.61,-0.3
9.612,-0.235
9.614,-0.16
9.616,-0.2
9.618,-0.275
9.62,-0.345
9.622,-0.355
9.624,-0.43
9.626,-0.395
9.628,-0.345
9.63,-0.27
9.632,-0.19
9.634,-0.12
9.636,-0.16
9.638,-0.23
9.64,-0.295
9.642,-0.33
9.644,-0.42
9.646,-0.42
9.648,-0.37
9.65,-0.28
9.652,-0.23
9.654,-0.15
9.656,-0.125
9.658,-0.2
9.66,-0.27
9.662,-0.3
9.664,-0.375
9.666,-0.36
9.668,-0.295
9.67,-0.245
9.672,-0.15
9.674,-0.09
9.676,-0.21
9.678,-0.25
9.68,-0.295
9.682,-0.305
9.684,-0.385
9.686,-0.4
9.688,-0.37
9.69,-0.27
9.692,-0.19
9.694,-0.14
9.696,-0.195
9.698,-0.27
9.7,-0.295
9.702,-0.345
9.704,-0.405
9.706,-0.405
9.708,-0.385
9.71,-0.25
9.712,-0.165
9.714,-0.16
9.716,-0.225
9.718,-0.285
9.72,-0.34
9.722,-0.395
9.724,-0.42
9.726,-0.375
9.728,-0.305
9.73,-0.23
9.732,-0.16
9.734,-0.11
9.736,-0.115
9.738,-0.255
9.74,-0.325
9.742,-0.385
9.744,-0.375
9.746,-0.345
9.748,-0.255
9.75,-0.185
9.752,-0.13
9.754,-0.11
9.756,-0.17
9.758,-0.285
9.76,-0.32
9.762,-0.38
9.764,-0.4
9.766,-0.375
9.768,-0.28
9.77,-0.25
9.772,-0.17
9.774,-0.17
9.776,-0.215
9.778,-0.265
9.78,-0.275
9.782,-0.38
9.784,-0.385
9.786,-0.335
9.788,-0.245
9.79,-0.22
9.792,-0.175
9.794,-0.2
9.796,-0.225
9.798,-0.3
9.8,-0.305
9.802,-0.39
9.804,-0.335
9.806,-0.34
9.808,-0.26
9.81,-0.24
9.812,-0.17
9.814,-0.17
9.816,-0.205
9.818,-0.275
9.82,-0.33
9.822,-0.395
9.824,-0.35
9.826,-0.31
9.828,-0.24
9.83,-0.175
9.832,-0.06
9.834,-0.085
9.836,-0.11
9.838,-0.165
9.84,-0.265
9.842,-0.35
9.844,-0.345
9.846,-0.32
9.848,-0.22
9.85,-0.205
9.852,-0.12
9.854,-0.125
9.856,-0.18
9.858,-0.285
9.86,-0.325
9.862,-0.39
9.864,-0.36
9.866,-0.33
9.868,-0.245
9.87,-0.25
9.872,-0.185
9.874,-0.205
9.876,-0.185
9.878,-0.26
9.88,-0.3
9.882,-0.39
9.884,-0.38
9.886,-0.355
9.888,-0.275
9.89,-0.245
9.892,-0.19
9.894,-0.18
9.896,-0.22
9.898,-0.275
9.9,-0.315
9.902,-0.385
9.904,-0.37
9.906,-0.385
9.908,-0.305
9.91,-0.285
9.912,-0.165
9.914,-0.19
9.916,-0.225
9.918,-0.285
9.92,-0.325
9.922,-0.435
9.924,-0.405
9.926,-0.35
9.928,-0.26
9.93,-0.23
9.932,-0.195
9.934,-0.265
9.936,-0.345
9.938,-0.44
9.94,-0.5
9.942,-0.57
9.944,-0.485
9.946,-0.365
9.948,-0.25
9.95,-0.125
9.952,0.06
9.954,0.175
9.956,0.235
9.958,0.27
9.96,0.325
9.962,0.445
9.964,0.6
9.966,0.76
9.968,0.91
9.97,0.995
9.972,1.045
9.974,0.925
9.976,0.735
9.978,0.59
9.98,0.44
9.982,0.15
9.984,0.01
9.986,-0.055
9.988,-0.15
9.99,-0.16
9.992,-0.145
9.994,-0.16
9.996,-0.26
9.998,-0.315
