0,-0.215
0.002,-0.15
0.004,-0.16
0.006,-0.195
0.008,-0.28
0.01,-0.335
0.012,-0.34
0.014,-0.325
0.016,-0.275
0.018,-0.17
0.02,-0.18
0.022,-0.17
0.024,-0.165
0.026,-0.18
0.028,-0.32
0.03,-0.385
0.032,-0.32
0.034,-0.28
0.036,-0.235
0.038,-0.16
0.04,-0.145
0.042,-0.17
0.044,-0.19
0.046,-0.27
0.048,-0.325
0.05,-0.305
0.052,-0.29
0.054,-0.265
0.056,-0.245
0.058,-0.205
0.06,-0.165
0.062,-0.17
0.064,-0.2
0.066,-0.24
0.068,-0.24
0.07,-0.325
0.072,-0.315
0.074,-0.315
0.076,-0.245
0.078,-0.17
0.08,-0.21
0.082,-0.18
0.084,-0.165
0.086,-0.23
0.088,-0.235
0.09,-0.295
0.092,-0.38
0.094,-0.325
0.096,-0.285
0.098,-0.215
0.1,-0.2
0.102,-0.225
0.104,-0.2
0.106,-0.24
0.108,-0.28
0.11,-0.32
0.112,-0.33
0.114,-0.305
0.116,-0.26
0.118,-0.205
0.12,-0.175
0.122,-0.17
0.124,-0.25
0.126,-0.27
0.128,-0.29
0.13,-0.325
0.132,-0.285
0.134,-0.28
0.136,-0.26
0.138,-0.205
0.14,-0.16
0.142,-0.095
0.144,-0.19
0.146,-0.22
0.148,-0.295
0.15,-0.295
0.152,-0.255
0.154,-0.3
0.156,-0.235
0.158,-0.185
0.16,-0.12
0.162,-0.095
0.164,-0.14
0.166,-0.2
0.168,-0.28
0.17,-0.285
0.172,-0.295
0.174,-0.255
0.176,-0.225
0.178,-0.22
0.18,-0.195
0.182,-0.24
0.184,-0.27
0.186,-0.305
0.188,-0.34
0.19,-0.3
0.192,-0.315
0.194,-0.335
0.196,-0.24
0.198,-0.21
0.2,-0.185
0.202,-0.21
0.204,-0.19
0.206,-0.27
0.208,-0.35
0.21,-0.315
0.212,-0.31
0.214,-0.32
0.216,-0.275
0.218,-0.215
0.22,-0.245
0.222,-0.205
0.224,-0.23
0.226,-0.275
0.228,-0.265
0.23,-0.37
0.232,-0.37
0.234,-0.33
0.236,-0.175
0.238,-0.21
0.24,-0.175
0.242,-0.185
0.244,-0.225
0.246,-0.355
0.248,-0.38
0.25,-0.38
0.252,-0.36
0.254,-0.33
0.256,-0.265
0.258,-0.28
0.26,-0.29
0.262,-0.3
0.264,-0.335
0.266,-0.34
0.268,-0.33
0.27,-0.255
0.272,-0.15
0.274,0.02
0.276,0.095
0.278,0.225
0.28,0.255
0.282,0.265
0.284,0.135
0.286,0.01
0.288,-0.125
0.29,-0.25
0.292,-0.195
0.294,-0.245
0.296,-0.225
0.298,-0.37
0.3,-0.435
0.302,-0.47
0.304,-0.5
0.306,-0.495
0.308,-0.535
0.31,-0.55
0.312,-0.525
0.314,-0.505
0.316,-0.425
0.318,-0.31
0.32,-0.215
0.322,-0.29
0.324,-0.35
0.326,-0.385
0.328,-0.37
0.33,-0.385
0.332,-0.395
0.334,-0.325
0.336,-0.285
0.338,-0.215
0.34,-0.175
0.342,-0.215
0.344,-0.26
0.346,-0.35
0.348,-0.345
0.35,-0.37
0.352,-0.33
0.354,-0.265
0.356,-0.23
0.358,-0.19
0.36,-0.195
0.362,-0.21
0.364,-0.27
0.366,-0.335
0.368,-0.3
0.37,-0.29
0.372,-0.295
0.374,-0.245
0.376,-0.155
0.378,-0.2
0.38,-0.2
0.382,-0.185
0.384,-0.235
0.386,-0.325
0.388,-0.36
0.39,-0.325
0.392,-0.3
0.394,-0.23
0.396,-0.21
0.398,-0.2
0.4,-0.195
0.402,-0.2
0.404,-0.25
0.406,-0.28
0.408,-0.345
0.41,-0.345
0.412,-0.33
0.414,-0.25
0.416,-0.185
0.418,-0.22
0.42,-0.185
0.422,-0.195
0.424,-0.27
0.426,-0.285
0.428,-0.27
0.43,-0.27
0.432,-0.225
0.434,-0.185
0.436,-0.135
0.438,-0.105
0.44,-0.165
0.442,-0.17
0.444,-0.21
0.446,-0.265
0.448,-0.275
0.45,-0.295
0.452,-0.29
0.454,-0.23
0.456,-0.15
0.458,-0.13
0.46,-0.125
0.462,-0.175
0.464,-0.18
0.466,-0.21
0.468,-0.255
0.47,-0.265
0.472,-0.165
0.474,-0.085
0.476,-0.075
0.478,-0.095
0.48,-0.145
0.482,-0.155
0.484,-0.195
0.486,-0.245
0.488,-0.19
0.49,-0.215
0.492,-0.145
0.494,-0.09
0.496,-0.065
0.498,-0.03
0.5,0.01
0.502,-0.03
0.504,-0.08
0.506,-0.145
0.508,-0.12
0.51,-0.11
0.512,-0.08
0.514,-0.075
0.516,-0.085
0.518,-0.075
0.52,0.025
0.522,-0.075
0.524,-0.12
0.526,-0.165
0.528,-0.195
0.53,-0.17
0.532,-0.065
0.534,-0.08
0.536,-0.025
0.538,-0.01
0.54,-0.025
0.542,-0.095
0.544,-0.195
0.546,-0.175
0.548,-0.225
0.55,-0.235
0.552,-0.195
0.554,-0.17
0.556,-0.105
0.558,-0.085
0.56,-0.14
0.562,-0.215
0.564,-0.28
0.566,-0.305
0.568,-0.285
0.57,-0.31
0.572,-0.265
0.574,-0.195
0.576,-0.16
0.578,-0.12
0.58,-0.185
0.582,-0.21
0.584,-0.32
0.586,-0.365
0.588,-0.435
0.59,-0.36
0.592,-0.31
0.594,-0.24
0.596,-0.2
0.598,-0.185
0.6,-0.21
0.602,-0.26
0.604,-0.335
0.606,-0.35
0.608,-0.38
0.61,-0.305
0.612,-0.325
0.614,-0.3
0.616,-0.255
0.618,-0.195
0.62,-0.235
0.622,-0.315
0.624,-0.33
0.626,-0.39
0.628,-0.38
0.63,-0.395
0.632,-0.335
0.634,-0.315
0.636,-0.295
0.638,-0.245
0.64,-0.255
0.642,-0.295
0.644,-0.37
0.646,-0.39
0.648,-0.345
0.65,-0.305
0.652,-0.285
0.654,-0.15
0.656,-0.205
0.658,-0.23
0.66,-0.25
0.662,-0.33
0.664,-0.355
0.666,-0.405
0.668,-0.36
0.67,-0.37
0.672,-0.31
0.674,-0.255
0.676,-0.225
0.678,-0.205
0.68,-0.22
0.682,-0.3
0.684,-0.37
0.686,-0.385
0.688,-0.385
0.69,-0.34
0.692,-0.275
0.694,-0.24
0.696,-0.22
0.698,-0.185
0.7,-0.27
0.702,-0.26
0.704,-0.35
0.706,-0.375
0.708,-0.345
0.71,-0.33
0.712,-0.3
0.714,-0.21
0.716,-0.145
0.718,-0.17
0.72,-0.23
0.722,-0.325
0.724,-0.3
0.726,-0.345
0.728,-0.27
0.73,-0.315
0.732,-0.245
0.734,-0.28
0.736,-0.255
0.738,-0.205
0.74,-0.185
0.742,-0.285
0.744,-0.29
0.746,-0.35
0.748,-0.35
0.75,-0.345
0.752,-0.26
0.754,-0.205
0.756,-0.19
0.758,-0.205
0.76,-0.26
0.762,-0.285
0.764,-0.335
0.766,-0.34
0.768,-0.36
0.77,-0.32
0.772,-0.285
0.774,-0.22
0.776,-0.18
0.778,-0.19
0.78,-0.25
0.782,-0.33
0.784,-0.34
0.786,-0.32
0.788,-0.335
0.79,-0.34
0.792,-0.25
0.794,-0.25
0.796,-0.205
0.798,-0.195
0.8,-0.215
0.802,-0.29
0.804,-0.375
0.806,-0.38
0.808,-0.34
0.81,-0.355
0.812,-0.3
0.814,-0.245
0.816,-0.215
0.818,-0.22
0.82,-0.26
0.822,-0.31
0.824,-0.355
0.826,-0.34
0.828,-0.34
0.83,-0.27
0.832,-0.285
0.834,-0.235
0.836,-0.195
0.838,-0.25
0.84,-0.3
0.842,-0.315
0.844,-0.34
0.846,-0.385
0.848,-0.36
0.85,-0.335
0.852,-0.245
0.854,-0.25
0.856,-0.24
0.858,-0.27
0.86,-0.27
0.862,-0.325
0.864,-0.415
0.866,-0.375
0.868,-0.355
0.87,-0.33
0.872,-0.225
0.874,-0.195
0.876,-0.205
0.878,-0.27
0.88,-0.29
0.882,-0.325
0.884,-0.39
0.886,-0.345
0.888,-0.32
0.89,-0.35
0.892,-0.305
0.894,-0.28
0.896,-0.235
0.898,-0.235
0.9,-0.23
0.902,-0.32
0.904,-0.35
0.906,-0.38
0.908,-0.375
0.91,-0.305
0.912,-0.27
0.914,-0.25
0.916,-0.25
0.918,-0.275
0.92,-0.315
0.922,-0.33
0.924,-0.35
0.926,-0.355
0.928,-0.355
0.93,-0.29
0.932,-0.26
0.934,-0.245
0.936,-0.23
0.938,-0.245
0.94,-0.28
0.942,-0.36
0.944,-0.375
0.946,-0.365
0.948,-0.375
0.95,-0.285
0.952,-0.16
0.954,-0.235
0.956,-0.22
0.958,-0.275
0.96,-0.3
0.962,-0.345
0.964,-0.35
0.966,-0.375
0.968,-0.375
0.97,-0.275
0.972,-0.235
0.974,-0.23
0.976,-0.215
0.978,-0.22
0.98,-0.26
0.982,-0.355
0.984,-0.405
0.986,-0.385
0.988,-0.32
0.99,-0.245
0.992,-0.19
0.994,-0.165
0.996,-0.165
0.998,-0.2
1,-0.27
1.002,-0.32
1.004,-0.29
1.006,-0.305
1.008,-0.345
1.01,-0.275
1.012,-0.2
1.014,-0.18
1.016,-0.19
1.018,-0.19
1.02,-0.25
1.022,-0.28
1.024,-0.27
1.026,-0.395
1.028,-0.36
1.03,-0.25
1.032,-0.205
1.034,-0.2
1.036,-0.255
1.038,-0.305
1.04,-0.365
1.042,-0.35
1.044,-0.35
1.046,-0.36
1.048,-0.345
1.05,-0.285
1.052,-0.255
1.054,-0.23
1.056,-0.25
1.058,-0.275
1.06,-0.345
1.062,-0.36
1.064,-0.345
1.066,-0.355
1.068,-0.31
1.07,-0.22
1.072,-0.245
1.074,-0.18
1.076,-0.22
1.078,-0.23
1.08,-0.29
1.082,-0.415
1.084,-0.405
1.086,-0.4
1.088,-0.355
1.09,-0.26
1.092,-0.26
1.094,-0.255
1.096,-0.27
1.098,-0.315
1.1,-0.375
1.102,-0.455
1.104,-0.42
1.106,-0.385
1.108,-0.35
1.11,-0.26
1.112,-0.24
1.114,-0.18
1.116,-0.085
1.118,-0.06
1.12,-0.075
1.122,-0.065
1.124,0.015
1.126,0.125
1.128,0.14
1.13,0.16
1.132,0.125
1.134,-0.005
1.136,-0.055
1.138,-0.105
1.14,-0.24
1.142,-0.375
1.144,-0.475
1.146,-0.62
1.148,-0.63
1.15,-0.455
1.152,-0.475
1.154,-0.5
1.156,-0.395
1.158,-0.42
1.16,-0.455
1.162,-0.52
1.164,-0.485
1.166,-0.455
1.168,-0.37
1.17,-0.335
1.172,-0.27
1.174,-0.25
1.176,-0.265
1.178,-0.325
1.18,-0.375
1.182,-0.41
1.184,-0.39
1.186,-0.37
1.188,-0.26
1.19,-0.215
1.192,-0.21
1.194,-0.265
1.196,-0.235
1.198,-0.275
1.2,-0.31
1.202,-0.33
1.204,-0.345
1.206,-0.31
1.208,-0.235
1.21,-0.2
1.212,-0.2
1.214,-0.225
1.216,-0.155
1.218,-0.235
1.22,-0.305
1.222,-0.295
1.224,-0.315
1.226,-0.29
1.228,-0.315
1.23,-0.26
1.232,-0.19
1.234,-0.19
1.236,-0.22
1.238,-0.335
1.24,-0.315
1.242,-0.365
1.244,-0.37
1.246,-0.32
1.248,-0.225
1.25,-0.175
1.252,-0.15
1.254,-0.185
1.256,-0.18
1.258,-0.26
1.26,-0.345
1.262,-0.34
1.264,-0.345
1.266,-0.3
1.268,-0.25
1.27,-0.205
1.272,-0.13
1.274,-0.17
1.276,-0.2
1.278,-0.25
1.28,-0.275
1.282,-0.3
1.284,-0.295
1.286,-0.235
1.288,-0.195
1.29,-0.14
1.292,-0.13
1.294,-0.145
1.296,-0.15
1.298,-0.2
1.3,-0.285
1.302,-0.35
1.304,-0.275
1.306,-0.25
1.308,-0.175
1.31,-0.16
1.312,-0.145
1.314,-0.12
1.316,-0.13
1.318,-0.235
1.32,-0.255
1.322,-0.24
1.324,-0.19
1.326,-0.235
1.328,-0.125
1.33,-0.06
1.332,-0.075
1.334,-0.115
1.336,-0.125
1.338,-0.14
1.34,-0.205
1.342,-0.24
1.344,-0.15
1.346,-0.155
1.348,-0.125
1.35,-0.07
1.352,-0.02
1.354,0.02
1.356,0.03
1.358,-0.1
1.36,-0.115
1.362,-0.13
1.364,-0.12
1.366,-0.12
1.368,-0.07
1.37,-0.045
1.372,-0.055
1.374,-0.055
1.376,-0.06
1.378,-0.115
1.38,-0.2
1.382,-0.195
1.384,-0.15
1.386,-0.15
1.388,-0.05
1.39,-0.02
1.392,-0.065
1.394,-0.06
1.396,-0.075
1.398,-0.19
1.4,-0.225
1.402,-0.275
1.404,-0.24
1.406,-0.24
1.408,-0.18
1.41,-0.18
1.412,-0.15
1.414,-0.185
1.416,-0.24
1.418,-0.355
1.42,-0.33
1.422,-0.3
1.424,-0.31
1.426,-0.295
1.428,-0.24
1.43,-0.22
1.432,-0.19
1.434,-0.19
1.436,-0.245
1.438,-0.295
1.44,-0.335
1.442,-0.36
1.444,-0.325
1.446,-0.285
1.448,-0.21
1.45,-0.25
1.452,-0.24
1.454,-0.23
1.456,-0.225
1.458,-0.305
1.46,-0.345
1.462,-0.365
1.464,-0.365
1.466,-0.32
1.468,-0.265
1.47,-0.245
1.472,-0.2
1.474,-0.205
1.476,-0.265
1.478,-0.335
1.48,-0.375
1.482,-0.39
1.484,-0.38
1.486,-0.325
1.488,-0.26
1.49,-0.255
1.492,-0.24
1.494,-0.295
1.496,-0.28
1.498,-0.315
1.5,-0.38
1.502,-0.39
1.504,-0.33
1.506,-0.275
1.508,-0.245
1.51,-0.225
1.512,-0.225
1.514,-0.27
1.516,-0.33
1.518,-0.315
1.52,-0.36
1.522,-0.39
1.524,-0.365
1.526,-0.295
1.528,-0.235
1.53,-0.205
1.532,-0.25
1.534,-0.27
1.536,-0.28
1.538,-0.29
1.54,-0.35
1.542,-0.375
1.544,-0.305
1.546,-0.235
1.548,-0.235
1.55,-0.195
1.552,-0.205
1.554,-0.18
1.556,-0.255
1.558,-0.335
1.56,-0.345
1.562,-0.3
1.564,-0.32
1.566,-0.325
1.568,-0.225
1.57,-0.17
1.572,-0.21
1.574,-0.225
1.576,-0.315
1.578,-0.325
1.58,-0.335
1.582,-0.365
1.584,-0.34
1.586,-0.235
1.588,-0.2
1.59,-0.19
1.592,-0.195
1.594,-0.215
1.596,-0.255
1.598,-0.355
1.6,-0.36
1.602,-0.345
1.604,-0.31
1.606,-0.23
1.608,-0.195
1.61,-0.205
1.612,-0.235
1.614,-0.245
1.616,-0.305
1.618,-0.315
1.62,-0.35
1.622,-0.36
1.624,-0.31
1.626,-0.24
1.628,-0.21
1.63,-0.165
1.632,-0.205
1.634,-0.23
1.636,-0.3
1.638,-0.34
1.64,-0.345
1.642,-0.305
1.644,-0.32
1.646,-0.26
1.648,-0.21
1.65,-0.16
1.652,-0.19
1.654,-0.23
1.656,-0.295
1.658,-0.35
1.66,-0.35
1.662,-0.345
1.664,-0.3
1.666,-0.26
1.668,-0.205
1.67,-0.22
1.672,-0.22
1.674,-0.28
1.676,-0.305
1.678,-0.34
1.68,-0.335
1.682,-0.35
1.684,-0.315
1.686,-0.28
1.688,-0.21
1.69,-0.21
1.692,-0.22
1.694,-0.245
1.696,-0.3
1.698,-0.28
1.7,-0.335
1.702,-0.345
1.704,-0.3
1.706,-0.195
1.708,-0.16
1.71,-0.13
1.712,-0.245
1.714,-0.28
1.716,-0.335
1.718,-0.38
1.72,-0.36
1.722,-0.345
1.724,-0.305
1.726,-0.245
1.728,-0.215
1.73,-0.21
1.732,-0.195
1.734,-0.285
1.736,-0.295
1.738,-0.305
1.74,-0.34
1.742,-0.3
1.744,-0.32
1.746,-0.32
1.748,-0.25
1.75,-0.225
1.752,-0.21
1.754,-0.28
1.756,-0.335
1.758,-0.34
1.76,-0.37
1.762,-0.35
1.764,-0.3
1.766,-0.27
1.768,-0.22
1.77,-0.175
1.772,-0.235
1.774,-0.22
1.776,-0.3
1.778,-0.315
1.78,-0.325
1.782,-0.34
1.784,-0.27
1.786,-0.18
1.788,-0.23
1.79,-0.23
1.792,-0.23
1.794,-0.26
1.796,-0.355
1.798,-0.34
1.8,-0.365
1.802,-0.33
1.804,-0.3
1.806,-0.225
1.808,-0.19
1.81,-0.21
1.812,-0.245
1.814,-0.245
1.816,-0.3
1.818,-0.385
1.82,-0.385
1.822,-0.355
1.824,-0.29
1.826,-0.205
1.828,-0.185
1.83,-0.18
1.832,-0.22
1.834,-0.255
1.836,-0.345
1.838,-0.34
1.84,-0.355
1.842,-0.325
1.844,-0.305
1.846,-0.25
1.848,-0.19
1.85,-0.17
1.852,-0.21
1.854,-0.25
1.856,-0.315
1.858,-0.365
1.86,-0.33
1.862,-0.27
1.864,-0.18
1.866,-0.185
1.868,-0.19
1.87,-0.195
1.872,-0.205
1.874,-0.28
1.876,-0.305
1.878,-0.3
1.88,-0.305
1.882,-0.26
1.884,-0.225
1.886,-0.17
1.888,-0.135
1.89,-0.135
1.892,-0.21
1.894,-0.25
1.896,-0.275
1.898,-0.35
1.9,-0.32
1.902,-0.295
1.904,-0.22
1.906,-0.155
1.908,-0.165
1.91,-0.225
1.912,-0.265
1.914,-0.295
1.916,-0.37
1.918,-0.37
1.92,-0.37
1.922,-0.345
1.924,-0.25
1.926,-0.23
1.928,-0.195
1.93,-0.2
1.932,-0.25
1.934,-0.315
1.936,-0.38
1.938,-0.365
1.94,-0.33
1.942,-0.33
1.944,-0.245
1.946,-0.19
1.948,-0.225
1.95,-0.225
1.952,-0.255
1.954,-0.3
1.956,-0.34
1.958,-0.305
1.96,-0.32
1.962,-0.32
1.964,-0.245
1.966,-0.19
1.968,-0.145
1.97,-0.22
1.972,-0.325
1.974,-0.375
1.976,-0.325
1.978,-0.4
1.98,-0.385
1.982,-0.32
1.984,-0.22
1.986,-0.17
1.988,-0.145
1.99,-0.055
1.992,-0.025
1.994,-0.025
1.996,0.035
1.998,0.095
2,0.14
2.002,0.185
2.004,0.225
2.006,0.18
2.008,-0.015
2.01,-0.115
2.012,-0.165
2.014,-0.315
2.016,-0.405
2.018,-0.505
2.02,-0.625
2.022,-0.58
2.024,-0.48
2.026,-0.42
2.028,-0.4
2.03,-0.4
2.032,-0.38
2.034,-0.43
2.036,-0.505
2.038,-0.485
2.04,-0.38
2.042,-0.275
2.044,-0.275
2.046,-0.205
2.048,-0.24
2.05,-0.255
2.052,-0.27
2.054,-0.335
2.056,-0.33
2.058,-0.315
2.06,-0.3
2.062,-0.27
2.064,-0.22
2.066,-0.22
2.068,-0.2
2.07,-0.24
2.072,-0.3
2.074,-0.345
2.076,-0.355
2.078,-0.305
2.08,-0.29
2.082,-0.255
2.084,-0.225
2.086,-0.205
2.088,-0.155
2.09,-0.165
2.092,-0.205
2.094,-0.36
2.096,-0.315
2.098,-0.325
2.1,-0.3
2.102,-0.26
2.104,-0.175
2.106,-0.155
2.108,-0.13
2.11,-0.2
2.112,-0.25
2.114,-0.27
2.116,-0.3
2.118,-0.28
2.12,-0.28
2.122,-0.225
2.124,-0.175
2.126,-0.12
2.128,-0.15
2.13,-0.16
2.132,-0.235
2.134,-0.28
2.136,-0.315
2.138,-0.355
2.14,-0.345
2.142,-0.215
2.144,-0.17
2.146,-0.14
2.148,-0.105
2.15,-0.175
2.152,-0.205
2.154,-0.245
2.156,-0.305
2.158,-0.27
2.16,-0.245
2.162,-0.145
2.164,-0.11
2.166,-0.1
2.168,-0.145
2.17,-0.205
2.172,-0.25
2.174,-0.275
2.176,-0.255
2.178,-0.29
2.18,-0.235
2.182,-0.15
2.184,-0.085
2.186,-0.055
2.188,-0.07
2.19,-0.14
2.192,-0.18
2.194,-0.175
2.196,-0.27
2.198,-0.225
2.2,-0.195
2.202,-0.085
2.204,-0.065
2.206,-0.04
2.208,-0.01
2.21,-0.075
2.212,-0.155
2.214,-0.155
2.216,-0.195
2.218,-0.14
2.22,-0.095
2.222,-0.045
2.224,-0.03
2.226,0
2.228,0
2.23,0
2.232,-0.1
2.234,-0.15
2.236,-0.095
2.238,-0.08
2.24,-0.08
2.242,-0.05
2.244,-0.025
2.246,0.035
2.248,0.02
2.25,-0.02
2.252,-0.08
2.254,-0.125
2.256,-0.14
2.258,-0.17
2.26,-0.105
2.262,-0.02
2.264,-0.005
2.266,0
2.268,-0.105
2.27,-0.125
2.272,-0.195
2.274,-0.185
2.276,-0.205
2.278,-0.195
2.28,-0.16
2.282,-0.105
2.284,-0.09
2.286,-0.125
2.288,-0.17
2.29,-0.19
2.292,-0.28
2.294,-0.27
2.296,-0.285
2.298,-0.28
2.3,-0.23
2.302,-0.23
2.304,-0.215
2.306,-0.195
2.308,-0.2
2.31,-0.195
2.312,-0.235
2.314,-0.28
2.316,-0.28
2.318,-0.265
2.32,-0.215
2.322,-0.21
2.324,-0.205
2.326,-0.18
2.328,-0.195
2.33,-0.23
2.332,-0.27
2.334,-0.35
2.336,-0.295
2.338,-0.33
2.34,-0.27
2.342,-0.2
2.344,-0.205
2.346,-0.18
2.348,-0.23
2.35,-0.255
2.352,-0.33
2.354,-0.355
2.356,-0.37
2.358,-0.335
2.36,-0.24
2.362,-0.175
2.364,-0.15
2.366,-0.185
2.368,-0.18
2.37,-0.205
2.372,-0.32
2.374,-0.335
2.376,-0.33
2.378,-0.365
2.38,-0.305
2.382,-0.235
2.384,-0.185
2.386,-0.19
2.388,-0.225
2.39,-0.285
2.392,-0.285
2.394,-0.305
2.396,-0.325
2.398,-0.31
2.4,-0.275
2.402,-0.225
2.404,-0.24
2.406,-0.185
2.408,-0.195
2.41,-0.245
2.412,-0.26
2.414,-0.3
2.416,-0.29
2.418,-0.26
2.42,-0.225
2.422,-0.185
2.424,-0.145
2.426,-0.225
2.428,-0.23
2.43,-0.255
2.432,-0.31
2.434,-0.275
2.436,-0.265
2.438,-0.26
2.44,-0.22
2.442,-0.195
2.444,-0.12
2.446,-0.16
2.448,-0.195
2.45,-0.255
2.452,-0.315
2.454,-0.32
2.456,-0.32
2.458,-0.3
2.46,-0.22
2.462,-0.21
2.464,-0.165
2.466,-0.17
2.468,-0.195
2.47,-0.25
2.472,-0.25
2.474,-0.255
2.476,-0.26
2.478,-0.2
2.48,-0.15
2.482,-0.175
2.484,-0.195
2.486,-0.185
2.488,-0.17
2.49,-0.265
2.492,-0.35
2.494,-0.39
2.496,-0.305
2.498,-0.255
2.5,-0.16
2.502,-0.13
2.504,-0.155
2.506,-0.155
2.508,-0.19
2.51,-0.31
2.512,-0.33
2.514,-0.3
2.516,-0.34
2.518,-0.265
2.52,-0.185
2.522,-0.17
2.524,-0.205
2.526,-0.22
2.528,-0.215
2.53,-0.28
2.532,-0.31
2.534,-0.29
2.536,-0.29
2.538,-0.305
2.54,-0.18
2.542,-0.2
2.544,-0.17
2.546,-0.155
2.548,-0.2
2.55,-0.295
2.552,-0.315
2.554,-0.3
2.556,-0.315
2.558,-0.275
2.56,-0.21
2.562,-0.235
2.564,-0.2
2.566,-0.255
2.568,-0.27
2.57,-0.29
2.572,-0.335
2.574,-0.305
2.576,-0.295
2.578,-0.235
2.58,-0.18
2.582,-0.11
2.584,-0.17
2.586,-0.165
2.588,-0.18
2.59,-0.26
2.592,-0.3
2.594,-0.365
2.596,-0.35
2.598,-0.29
2.6,-0.22
2.602,-0.155
2.604,-0.14
2.606,-0.145
2.608,-0.155
2.61,-0.24
2.612,-0.325
2.614,-0.34
2.616,-0.295
2.618,-0.25
2.62,-0.2
2.622,-0.24
2.624,-0.2
2.626,-0.2
2.628,-0.265
2.63,-0.3
2.632,-0.33
2.634,-0.345
2.636,-0.3
2.638,-0.22
2.64,-0.205
2.642,-0.215
2.644,-0.195
2.646,-0.22
2.648,-0.25
2.65,-0.275
2.652,-0.335
2.654,-0.305
2.656,-0.315
2.658,-0.235
2.66,-0.175
2.662,-0.145
2.664,-0.18
2.666,-0.21
2.668,-0.215
2.67,-0.31
2.672,-0.26
2.674,-0.26
2.676,-0.315
2.678,-0.24
2.68,-0.195
2.682,-0.21
2.684,-0.215
2.686,-0.22
2.688,-0.215
2.69,-0.335
2.692,-0.34
2.694,-0.315
2.696,-0.27
2.698,-0.19
2.7,-0.2
2.702,-0.16
2.704,-0.165
2.706,-0.19
2.708,-0.255
2.71,-0.295
2.712,-0.32
2.714,-0.25
2.716,-0.285
2.718,-0.265
2.72,-0.205
2.722,-0.2
2.724,-0.21
2.726,-0.21
2.728,-0.26
2.73,-0.33
2.732,-0.345
2.734,-0.325
2.736,-0.26
2.738,-0.155
2.74,-0.165
2.742,-0.165
2.744,-0.175
2.746,-0.235
2.748,-0.305
2.75,-0.285
2.752,-0.275
2.754,-0.385
2.756,-0.305
2.758,-0.215
2.76,-0.21
2.762,-0.165
2.764,-0.165
2.766,-0.2
2.768,-0.26
2.77,-0.28
2.772,-0.31
2.774,-0.315
2.776,-0.25
2.778,-0.155
2.78,-0.165
2.782,-0.17
2.784,-0.225
2.786,-0.17
2.788,-0.24
2.79,-0.28
2.792,-0.295
2.794,-0.295
2.796,-0.235
2.798,-0.205
2.8,-0.16
2.802,-0.13
2.804,-0.17
2.806,-0.16
2.808,-0.27
2.81,-0.26
2.812,-0.275
2.814,-0.265
2.816,-0.21
2.818,-0.16
2.82,-0.185
2.822,-0.185
2.824,-0.12
2.826,-0.155
2.828,-0.22
2.83,-0.3
2.832,-0.3
2.834,-0.295
2.836,-0.205
2.838,-0.135
2.84,-0.085
2.842,-0.07
2.844,-0.195
2.846,-0.17
2.848,-0.25
2.85,-0.235
2.852,-0.25
2.854,-0.37
2.856,-0.285
2.858,-0.21
2.86,-0.17
2.862,-0.2
2.864,-0.245
2.866,-0.25
2.868,-0.325
2.87,-0.315
2.872,-0.33
2.874,-0.31
2.876,-0.245
2.878,-0.195
2.88,-0.18
2.882,-0.185
2.884,-0.185
2.886,-0.195
2.888,-0.27
2.89,-0.38
2.892,-0.33
2.894,-0.3
2.896,-0.25
2.898,-0.215
2.9,-0.21
2.902,-0.165
2.904,-0.165
2.906,-0.265
2.908,-0.305
2.91,-0.345
2.912,-0.355
2.914,-0.31
2.916,-0.255
2.918,-0.27
2.92,-0.22
2.922,-0.125
2.924,-0.13
2.926,-0.14
2.928,-0.115
2.93,-0.075
2.932,0.01
2.934,0.075
2.936,0.23
2.938,0.285
2.94,0.265
2.942,0.18
2.944,0.05
2.946,-0.08
2.948,-0.135
2.95,-0.165
2.952,-0.255
2.954,-0.35
2.956,-0.435
2.958,-0.41
2.96,-0.365
2.962,-0.42
2.964,-0.405
2.966,-0.415
2.968,-0.48
2.97,-0.48
2.972,-0.45
2.974,-0.45
2.976,-0.34
2.978,-0.275
2.98,-0.17
2.982,-0.21
2.984,-0.18
2.986,-0.23
2.988,-0.355
2.99,-0.32
2.992,-0.28
2.994,-0.285
2.996,-0.185
2.998,-0.195
3,-0.145
3.002,-0.15
3.004,-0.14
3.006,-0.215
3.008,-0.29
3.01,-0.345
3.012,-0.31
3.014,-0.245
3.016,-0.175
3.018,-0.175
3.02,-0.13
3.022,-0.145
3.024,-0.2
3.026,-0.265
3.028,-0.31
3.03,-0.3
3.032,-0.255
3.034,-0.21
3.036,-0.16
3.038,-0.135
3.04,-0.155
3.042,-0.12
3.044,-0.11
3.046,-0.22
3.048,-0.26
3.05,-0.255
3.052,-0.34
3.054,-0.23
3.056,-0.18
3.058,-0.13
3.06,-0.12
3.062,-0.14
3.064,-0.125
3.066,-0.21
3.068,-0.225
3.07,-0.24
3.072,-0.255
3.074,-0.24
3.076,-0.215
3.078,-0.15
3.08,-0.105
3.082,-0.145
3.084,-0.13
3.086,-0.205
3.088,-0.225
3.09,-0.245
3.092,-0.265
3.094,-0.215
3.096,-0.105
3.098,-0.13
3.1,-0.075
3.102,-0.075
3.104,-0.075
3.106,-0.235
3.108,-0.2
3.11,-0.245
3.112,-0.24
3.114,-0.18
3.116,-0.14
3.118,-0.08
3.12,-0.06
3.122,-0.055
3.124,-0.07
3.126,-0.095
3.128,-0.16
3.13,-0.22
3.132,-0.2
3.134,-0.145
3.136,-0.09
3.138,-0.02
3.14,-0.045
3.142,-0.045
3.144,-0.1
3.146,-0.135
3.148,-0.135
3.15,-0.12
3.152,-0.095
3.154,-0.03
3.156,0.025
3.158,0.04
3.16,0.01
3.162,-0.005
3.164,-0.015
3.166,-0.05
3.168,-0.125
3.17,-0.1
3.172,-0.07
3.174,-0.085
3.176,-0.03
3.178,0.06
3.18,0.045
3.182,0.035
3.184,0.005
3.186,-0.04
3.188,-0.05
3.19,-0.085
3.192,-0.13
3.194,-0.05
3.196,0.015
3.198,0.045
3.2,0.06
3.202,0.08
3.204,0
3.206,-0.2
3.208,-0.175
3.21,-0.17
3.212,-0.15
3.214,-0.11
3.216,-0.065
3.218,-0.05
3.22,-0.065
3.222,-0.09
3.224,-0.155
3.226,-0.225
3.228,-0.265
3.23,-0.235
3.232,-0.235
3.234,-0.185
3.236,-0.16
3.238,-0.12
3.24,-0.095
3.242,-0.165
3.244,-0.21
3.246,-0.275
3.248,-0.295
3.25,-0.27
3.252,-0.26
3.254,-0.215
3.256,-0.17
3.258,-0.105
3.26,-0.145
3.262,-0.17
3.264,-0.22
3.266,-0.275
3.268,-0.25
3.27,-0.25
3.272,-0.255
3.274,-0.235
3.276,-0.21
3.278,-0.165
3.28,-0.165
3.282,-0.155
3.284,-0.25
3.286,-0.325
3.288,-0.355
3.29,-0.3
3.292,-0.235
3.294,-0.225
3.296,-0.15
3.298,-0.13
3.3,-0.145
3.302,-0.165
3.304,-0.255
3.306,-0.295
3.308,-0.3
3.31,-0.3
3.312,-0.3
3.314,-0.21
3.316,-0.19
3.318,-0.15
3.32,-0.155
3.322,-0.175
3.324,-0.24
3.326,-0.275
3.328,-0.31
3.33,-0.32
3.332,-0.25
3.334,-0.15
3.336,-0.115
3.338,-0.125
3.34,-0.17
3.342,-0.185
3.344,-0.245
3.346,-0.29
3.348,-0.305
3.35,-0.315
3.352,-0.26
3.354,-0.16
3.356,-0.145
3.358,-0.15
3.36,-0.16
3.362,-0.205
3.364,-0.24
3.366,-0.28
3.368,-0.315
3.37,-0.275
3.372,-0.225
3.374,-0.175
3.376,-0.145
3.378,-0.075
3.38,-0.045
3.382,-0.14
3.384,-0.25
3.386,-0.275
3.388,-0.28
3.39,-0.25
3.392,-0.275
3.394,-0.15
3.396,-0.135
3.398,-0.11
3.4,-0.155
3.402,-0.205
3.404,-0.255
3.406,-0.285
3.408,-0.27
3.41,-0.28
3.412,-0.24
3.414,-0.18
3.416,-0.155
3.418,-0.115
3.42,-0.115
3.422,-0.185
3.424,-0.28
3.426,-0.32
3.428,-0.295
3.43,-0.28
3.432,-0.23
3.434,-0.145
3.436,-0.15
3.438,-0.11
3.44,-0.17
3.442,-0.235
3.444,-0.285
3.446,-0.29
3.448,-0.305
3.45,-0.305
3.452,-0.21
3.454,-0.22
3.456,-0.165
3.458,-0.145
3.46,-0.11
3.462,-0.165
3.464,-0.21
3.466,-0.265
3.468,-0.275
3.47,-0.24
3.472,-0.215
3.474,-0.2
3.476,-0.13
3.478,-0.175
3.48,-0.18
3.482,-0.265
3.484,-0.265
3.486,-0.3
3.488,-0.3
3.49,-0.285
3.492,-0.215
3.494,-0.17
3.496,-0.155
3.498,-0.17
3.5,-0.22
3.502,-0.215
3.504,-0.24
3.506,-0.315
3.508,-0.3
3.51,-0.29
3.512,-0.23
3.514,-0.155
3.516,-0.15
3.518,-0.115
3.52,-0.175
3.522,-0.225
3.524,-0.265
3.526,-0.285
3.528,-0.285
3.53,-0.27
3.532,-0.25
3.534,-0.205
3.536,-0.18
3.538,-0.18
3.54,-0.18
3.542,-0.23
3.544,-0.24
3.546,-0.28
3.548,-0.185
3.55,-0.28
3.552,-0.255
3.554,-0.175
3.556,-0.17
3.558,-0.185
3.56,-0.19
3.562,-0.23
3.564,-0.275
3.566,-0.23
3.568,-0.29
3.57,-0.295
3.572,-0.245
3.574,-0.195
3.576,-0.165
3.578,-0.16
3.58,-0.19
3.582,-0.235
3.584,-0.245
3.586,-0.29
3.588,-0.305
3.59,-0.275
3.592,-0.19
3.594,-0.155
3.596,-0.14
3.598,-0.135
3.6,-0.175
3.602,-0.255
3.604,-0.295
3.606,-0.27
3.608,-0.275
3.61,-0.235
3.612,-0.195
3.614,-0.145
3.616,-0.08
3.618,-0.14
3.62,-0.17
3.622,-0.235
3.624,-0.265
3.626,-0.265
3.628,-0.31
3.63,-0.295
3.632,-0.235
3.634,-0.17
3.636,-0.115
3.638,-0.095
3.64,-0.16
3.642,-0.245
3.644,-0.275
3.646,-0.275
3.648,-0.26
3.65,-0.235
3.652,-0.195
3.654,-0.165
3.656,-0.13
3.658,-0.17
3.66,-0.215
3.662,-0.25
3.664,-0.305
3.666,-0.295
3.668,-0.255
3.67,-0.25
3.672,-0.165
3.674,-0.105
3.676,-0.13
3.678,-0.205
3.68,-0.165
3.682,-0.195
3.684,-0.195
3.686,-0.19
3.688,-0.26
3.69,-0.21
3.692,-0.125
3.694,-0.1
3.696,-0.16
3.698,-0.145
3.7,-0.14
3.702,-0.19
3.704,-0.215
3.706,-0.235
3.708,-0.23
3.71,-0.205
3.712,-0.1
3.714,-0.07
3.716,-0.04
3.718,-0.095
3.72,-0.195
3.722,-0.225
3.724,-0.26
3.726,-0.31
3.728,-0.29
3.73,-0.205
3.732,-0.135
3.734,-0.125
3.736,-0.07
3.738,-0.125
3.74,-0.195
3.742,-0.245
3.744,-0.265
3.746,-0.265
3.748,-0.265
3.75,-0.195
3.752,-0.185
3.754,-0.155
3.756,-0.125
3.758,-0.18
3.76,-0.205
3.762,-0.27
3.764,-0.35
3.766,-0.33
3.768,-0.3
3.77,-0.17
3.772,-0.14
3.774,-0.09
3.776,-0.1
3.778,-0.155
3.78,-0.205
3.782,-0.235
3.784,-0.215
3.786,-0.245
3.788,-0.28
3.79,-0.285
3.792,-0.185
3.794,-0.14
3.796,-0.14
3.798,-0.205
3.8,-0.285
3.802,-0.33
3.804,-0.3
3.806,-0.325
3.808,-0.235
3.81,-0.18
3.812,-0.14
3.814,-0.04
3.816,0.01
3.818,0.035
3.82,0.095
3.822,0.105
3.824,0.17
3.826,0.205
3.828,0.21
3.83,0.24
3.832,0.14
3.834,-0.015
3.836,-0.045
3.838,-0.02
3.84,-0.175
3.842,-0.315
3.844,-0.45
3.846,-0.51
3.848,-0.455
3.85,-0.35
3.852,-0.35
3.854,-0.38
3.856,-0.37
3.858,-0.35
3.86,-0.39
3.862,-0.385
3.864,-0.34
3.866,-0.34
3.868,-0.29
3.87,-0.245
3.872,-0.165
3.874,-0.115
3.876,-0.145
3.878,-0.195
3.88,-0.235
3.882,-0.28
3.884,-0.3
3.886,-0.245
3.888,-0.235
3.89,-0.17
3.892,-0.16
3.894,-0.115
3.896,-0.13
3.898,-0.17
3.9,-0.175
3.902,-0.185
3.904,-0.17
3.906,-0.235
3.908,-0.23
3.91,-0.17
3.912,-0.115
3.914,-0.1
3.916,-0.135
3.918,-0.18
3.92,-0.18
3.922,-0.17
3.924,-0.235
3.926,-0.255
3.928,-0.215
3.93,-0.145
3.932,-0.12
3.934,-0.025
3.936,-0.075
3.938,-0.11
3.94,-0.165
3.942,-0.2
3.944,-0.215
3.946,-0.255
3.948,-0.24
3.95,-0.13
3.952,-0.14
3.954,-0.095
3.956,-0.07
3.958,-0.145
3.96,-0.15
3.962,-0.205
3.964,-0.2
3.966,-0.18
3.968,-0.2
3.97,-0.125
3.972,-0.05
3.974,-0.045
3.976,-0.06
3.978,-0.095
3.98,-0.165
3.982,-0.18
3.984,-0.18
3.986,-0.18
3.988,-0.18
3.99,-0.135
3.992,-0.025
3.994,-0.04
3.996,-0.045
3.998,-0.1
4,-0.21
4.002,-0.145
4.004,-0.2
4.006,-0.185
4.008,-0.12
4.01,-0.005
4.012,-0.005
4.014,0.035
4.016,-0.02
4.018,-0.045
4.02,-0.105
4.022,-0.19
4.024,-0.155
4.026,-0.16
4.028,-0.06
4.03,-0.04
4.032,0.01
4.034,0.07
4.036,0.02
4.038,0.025
4.04,-0.09
4.042,-0.05
4.044,-0.055
4.046,-0.08
4.048,-0.025
4.05,0.05
4.052,0.135
4.054,0.1
4.056,0.075
4.058,0.07
4.06,0.05
4.062,0.035
4.064,-0.045
4.066,-0.06
4.068,0.05
4.07,0.085
4.072,0.055
4.074,0.065
4.076,0.045
4.078,0.005
4.08,-0.045
4.082,-0.055
4.084,-0.04
4.086,-0.045
4.088,0
4.09,0.045
4.092,0.065
4.094,0.07
4.096,0.05
4.098,-0.035
4.1,-0.14
4.102,-0.225
4.104,-0.175
4.106,-0.145
4.108,-0.11
4.11,-0.055
4.112,-0.065
4.114,-0.045
4.116,-0.09
4.118,-0.125
4.12,-0.185
4.122,-0.21
4.124,-0.225
4.126,-0.2
4.128,-0.145
4.13,-0.065
4.132,-0.045
4.134,-0.06
4.136,-0.085
4.138,-0.155
4.14,-0.23
4.142,-0.29
4.144,-0.27
4.146,-0.225
4.148,-0.14
4.15,-0.16
4.152,-0.12
4.154,-0.1
4.156,-0.15
4.158,-0.215
4.16,-0.24
4.162,-0.325
4.164,-0.28
4.166,-0.27
4.168,-0.145
4.17,-0.135
4.172,-0.115
4.174,-0.12
4.176,-0.13
4.178,-0.165
4.18,-0.285
4.182,-0.315
4.184,-0.285
4.186,-0.225
4.188,-0.18
4.19,-0.115
4.192,-0.125
4.194,-0.16
4.196,-0.125
4.198,-0.145
4.2,-0.24
4.202,-0.26
4.204,-0.285
4.206,-0.295
4.208,-0.165
4.21,-0.135
4.212,-0.155
4.214,-0.105
4.216,-0.135
4.218,-0.16
4.22,-0.22
4.222,-0.21
4.224,-0.25
4.226,-0.245
4.228,-0.155
4.23,-0.155
4.232,-0.14
4.234,-0.14
4.236,-0.135
4.238,-0.205
4.24,-0.245
4.242,-0.26
4.244,-0.235
4.246,-0.21
4.248,-0.15
4.25,-0.125
4.252,-0.105
4.254,-0.115
4.256,-0.18
4.258,-0.21
4.26,-0.245
4.262,-0.235
4.264,-0.21
4.266,-0.195
4.268,-0.12
4.27,-0.06
4.272,-0.065
4.274,-0.085
4.276,-0.14
4.278,-0.135
4.28,-0.235
4.282,-0.24
4.284,-0.215
4.286,-0.155
4.288,-0.105
4.29,-0.13
4.292,-0.09
4.294,-0.115
4.296,-0.135
4.298,-0.19
4.3,-0.21
4.302,-0.22
4.304,-0.245
4.306,-0.195
4.308,-0.105
4.31,-0.065
4.312,-0.085
4.314,-0.09
4.316,-0.14
4.318,-0.23
4.32,-0.245
4.322,-0.25
4.324,-0.235
4.326,-0.155
4.328,-0.065
4.33,-0.095
4.332,-0.135
4.334,-0.13
4.336,-0.135
4.338,-0.205
4.34,-0.22
4.342,-0.25
4.344,-0.27
4.346,-0.185
4.348,-0.105
4.35,-0.09
4.352,-0.105
4.354,-0.09
4.356,-0.115
4.358,-0.205
4.36,-0.295
4.362,-0.275
4.364,-0.26
4.366,-0.22
4.368,-0.12
4.37,-0.075
4.372,-0.085
4.374,-0.145
4.376,-0.19
4.378,-0.27
4.38,-0.31
4.382,-0.275
4.384,-0.26
4.386,-0.185
4.388,-0.115
4.39,-0.115
4.392,-0.115
4.394,-0.08
4.396,-0.215
4.398,-0.265
4.4,-0.255
4.402,-0.23
4.404,-0.205
4.406,-0.12
4.408,-0.13
4.41,-0.125
4.412,-0.14
4.414,-0.105
4.416,-0.185
4.418,-0.235
4.42,-0.24
4.422,-0.24
4.424,-0.24
4.426,-0.16
4.428,-0.085
4.43,-0.095
4.432,-0.11
4.434,-0.13
4.436,-0.185
4.438,-0.295
4.44,-0.315
4.442,-0.245
4.444,-0.245
4.446,-0.205
4.448,-0.13
4.45,-0.095
4.452,-0.085
4.454,-0.16
4.456,-0.195
4.458,-0.28
4.46,-0.305
4.462,-0.29
4.464,-0.215
4.466,-0.14
4.468,-0.105
4.47,-0.135
4.472,-0.105
4.474,-0.11
4.476,-0.2
4.478,-0.28
4.48,-0.27
4.482,-0.255
4.484,-0.23
4.486,-0.16
4.488,-0.1
4.49,-0.13
4.492,-0.055
4.494,-0.095
4.496,-0.18
4.498,-0.26
4.5,-0.29
4.502,-0.295
4.504,-0.185
4.506,-0.135
4.508,-0.14
4.51,-0.145
4.512,-0.115
4.514,-0.13
4.516,-0.215
4.518,-0.27
4.52,-0.3
4.522,-0.275
4.524,-0.215
4.526,-0.15
4.528,-0.115
4.53,-0.085
4.532,-0.145
4.534,-0.205
4.536,-0.195
4.538,-0.24
4.54,-0.255
4.542,-0.215
4.544,-0.16
4.546,-0.13
4.548,-0.115
4.55,-0.09
4.552,-0.11
4.554,-0.12
4.556,-0.17
4.558,-0.23
4.56,-0.23
4.562,-0.21
4.564,-0.155
4.566,-0.025
4.568,-0.015
4.57,-0.07
4.572,-0.165
4.574,-0.205
4.576,-0.185
4.578,-0.26
4.58,-0.28
4.582,-0.24
4.584,-0.205
4.586,-0.12
4.588,-0.11
4.59,-0.14
4.592,-0.075
4.594,-0.135
4.596,-0.16
4.598,-0.24
4.6,-0.25
4.602,-0.25
4.604,-0.21
4.606,-0.1
4.608,-0.125
4.61,-0.1
4.612,-0.125
4.614,-0.16
4.616,-0.255
4.618,-0.27
4.62,-0.28
4.622,-0.23
4.624,-0.215
4.626,-0.135
4.628,-0.075
4.63,-0.11
4.632,-0.145
4.634,-0.2
4.636,-0.275
4.638,-0.295
4.64,-0.225
4.642,-0.22
4.644,-0.17
4.646,-0.17
4.648,-0.19
4.65,-0.115
4.652,-0.185
4.654,-0.22
4.656,-0.27
4.658,-0.305
4.66,-0.32
4.662,-0.24
4.664,-0.18
4.666,-0.195
4.668,-0.115
4.67,-0.145
4.672,-0.18
4.674,-0.25
4.676,-0.315
4.678,-0.325
4.68,-0.34
4.682,-0.275
4.684,-0.195
4.686,-0.055
4.688,0.055
4.69,0.15
4.692,0.135
4.694,0.16
4.696,0.225
4.698,0.235
4.7,0.2
4.702,0.175
4.704,0.11
4.706,-0.01
4.708,-0.035
4.71,0.015
4.712,-0.105
4.714,-0.21
4.716,-0.415
4.718,-0.56
4.72,-0.61
4.722,-0.49
4.724,-0.405
4.726,-0.385
4.728,-0.3
4.73,-0.32
4.732,-0.34
4.734,-0.335
4.736,-0.365
4.738,-0.38
4.74,-0.345
4.742,-0.325
4.744,-0.24
4.746,-0.21
4.748,-0.115
4.75,-0.12
4.752,-0.13
4.754,-0.23
4.756,-0.285
4.758,-0.295
4.76,-0.275
4.762,-0.205
4.764,-0.17
4.766,-0.15
4.768,-0.145
4.77,-0.13
4.772,-0.165
4.774,-0.22
4.776,-0.285
4.778,-0.305
4.78,-0.24
4.782,-0.24
4.784,-0.165
4.786,-0.115
4.788,-0.07
4.79,-0.07
4.792,-0.18
4.794,-0.19
4.796,-0.26
4.798,-0.26
4.8,-0.27
4.802,-0.235
4.804,-0.16
4.806,-0.11
4.808,-0.12
4.81,-0.075
4.812,-0.125
4.814,-0.19
4.816,-0.255
4.818,-0.26
4.82,-0.215
4.822,-0.2
4.824,-0.175
4.826,-0.14
4.828,-0.12
4.83,-0.09
4.832,-0.155
4.834,-0.21
4.836,-0.175
4.838,-0.23
4.84,-0.235
4.842,-0.185
4.844,-0.085
4.846,-0.065
4.848,-0.08
4.85,-0.065
4.852,-0.15
4.854,-0.24
4.856,-0.18
4.858,-0.24
4.86,-0.22
4.862,-0.19
4.864,-0.08
4.866,-0.08
4.868,-0.05
4.87,-0.04
4.872,-0.1
4.874,-0.13
4.876,-0.2
4.878,-0.185
4.88,-0.205
4.882,-0.16
4.884,-0.13
4.886,-0.06
4.888,-0.025
4.89,-0.01
4.892,-0.09
4.894,-0.135
4.896,-0.12
4.898,-0.15
4.9,-0.14
4.902,-0.065
4.904,0.04
4.906,0.025
4.908,-0.035
4.91,0.01
4.912,-0.04
4.914,-0.055
4.916,-0.07
4.918,-0.105
4.92,-0.085
4.922,-0.03
4.924,0.025
4.926,0.085
4.928,0.15
4.93,0.065
4.932,0.025
4.934,-0.085
4.936,-0.015
4.938,-0.04
4.94,-0.06
4.942,0.055
4.944,0.07
4.946,0.055
4.948,0.06
4.95,0.075
4.952,0.08
4.954,-0.01
4.956,-0.055
4.958,-0.12
4.96,-0.095
4.962,-0.01
4.964,-0.005
4.966,0.04
4.968,0
4.97,0.015
4.972,-0.005
4.974,-0.09
4.976,-0.21
4.978,-0.205
4.98,-0.16
4.982,-0.095
4.984,-0.07
4.986,-0.06
4.988,-0.065
4.99,-0.09
4.992,-0.14
4.994,-0.22
4.996,-0.27
4.998,-0.215
5,-0.19
5.002,-0.18
5.004,-0.17
5.006,-0.12
5.008,-0.12
5.01,-0.12
5.012,-0.21
5.014,-0.3
5.016,-0.3
5.018,-0.215
5.02,-0.2
5.022,-0.165
5.024,-0.11
5.026,-0.075
5.028,-0.07
5.03,-0.16
5.032,-0.235
5.034,-0.275
5.036,-0.265
5.038,-0.27
5.04,-0.215
5.042,-0.14
5.044,-0.115
5.046,-0.17
5.048,-0.14
5.05,-0.155
5.052,-0.19
5.054,-0.285
5.056,-0.3
5.058,-0.3
5.06,-0.24
5.062,-0.17
5.064,-0.145
5.066,-0.14
5.068,-0.15
5.07,-0.175
5.072,-0.25
5.074,-0.285
5.076,-0.265
5.078,-0.275
5.08,-0.21
5.082,-0.115
5.084,-0.1
5.086,-0.115
5.088,-0.085
5.09,-0.125
5.092,-0.205
5.094,-0.265
5.096,-0.285
5.098,-0.28
5.1,-0.255
5.102,-0.17
5.104,-0.15
5.106,-0.115
5.108,-0.095
5.11,-0.14
5.112,-0.255
5.114,-0.255
5.116,-0.22
5.118,-0.21
5.12,-0.23
5.122,-0.15
5.124,-0.105
5.126,-0.115
5.128,-0.12
5.13,-0.24
5.132,-0.275
5.134,-0.265
5.136,-0.255
5.138,-0.25
5.14,-0.2
5.142,-0.105
5.144,-0.05
5.146,-0.055
5.148,-0.1
5.15,-0.125
5.152,-0.195
5.154,-0.215
5.156,-0.26
5.158,-0.25
5.16,-0.165
5.162,-0.14
5.164,-0.1
5.166,-0.1
5.168,-0.085
5.17,-0.14
5.172,-0.18
5.174,-0.215
5.176,-0.285
5.178,-0.225
5.18,-0.155
5.182,-0.12
5.184,-0.08
5.186,-0.095
5.188,-0.11
5.19,-0.135
5.192,-0.19
5.194,-0.245
5.196,-0.25
5.198,-0.25
5.2,-0.195
5.202,-0.11
5.204,-0.075
5.206,-0.085
5.208,-0.1
5.21,-0.18
5.212,-0.24
5.214,-0.25
5.216,-0.24
5.218,-0.265
5.22,-0.185
5.222,-0.165
5.224,-0.055
5.226,-0.05
5.228,-0.105
5.23,-0.185
5.232,-0.235
5.234,-0.235
5.236,-0.22
5.238,-0.185
5.24,-0.12
5.242,-0.08
5.244,-0.095
5.246,-0.145
5.248,-0.155
5.25,-0.235
5.252,-0.245
5.254,-0.25
5.256,-0.235
5.258,-0.24
5.26,-0.2
5.262,-0.105
5.264,-0.095
5.266,-0.135
5.268,-0.09
5.27,-0.145
5.272,-0.225
5.274,-0.245
5.276,-0.24
5.278,-0.225
5.28,-0.16
5.282,-0.12
5.284,-0.145
5.286,-0.09
5.288,-0.125
5.29,-0.205
5.292,-0.215
5.294,-0.27
5.296,-0.275
5.298,-0.23
5.3,-0.185
5.302,-0.13
5.304,-0.12
5.306,-0.11
5.308,-0.12
5.31,-0.195
5.312,-0.215
5.314,-0.245
5.316,-0.24
5.318,-0.205
5.32,-0.125
5.322,-0.095
5.324,-0.13
5.326,-0.11
5.328,-0.1
5.33,-0.235
5.332,-0.22
5.334,-0.25
5.336,-0.235
5.338,-0.19
5.34,-0.14
5.342,-0.015
5.344,-0.07
5.346,-0.075
5.348,-0.14
5.35,-0.21
5.352,-0.23
5.354,-0.27
5.356,-0.28
5.358,-0.23
5.36,-0.125
5.362,-0.13
5.364,-0.15
5.366,-0.14
5.368,-0.11
5.37,-0.245
5.372,-0.265
5.374,-0.22
5.376,-0.2
5.378,-0.17
5.38,-0.155
5.382,-0.12
5.384,-0.11
5.386,-0.14
5.388,-0.165
5.39,-0.225
5.392,-0.25
5.394,-0.235
5.396,-0.23
5.398,-0.185
5.4,-0.085
5.402,-0.105
5.404,-0.095
5.406,-0.14
5.408,-0.11
5.41,-0.185
5.412,-0.23
5.414,-0.23
5.416,-0.215
5.418,-0.17
5.42,-0.145
5.422,-0.105
5.424,-0.04
5.426,-0.09
5.428,-0.155
5.43,-0.26
5.432,-0.24
5.434,-0.215
5.436,-0.2
5.438,-0.105
5.44,-0.005
5.442,-0.055
5.444,-0.065
5.446,-0.085
5.448,-0.125
5.45,-0.19
5.452,-0.245
5.454,-0.25
5.456,-0.215
5.458,-0.15
5.46,-0.105
5.462,-0.095
5.464,-0.035
5.466,-0.025
5.468,-0.095
5.47,-0.195
5.472,-0.155
5.474,-0.225
5.476,-0.23
5.478,-0.155
5.48,-0.12
5.482,-0.11
5.484,-0.07
5.486,-0.1
5.488,-0.115
5.49,-0.2
5.492,-0.19
5.494,-0.19
5.496,-0.24
5.498,-0.195
5.5,-0.135
5.502,-0.155
5.504,-0.125
5.506,-0.12
5.508,-0.17
5.51,-0.225
5.512,-0.235
5.514,-0.27
5.516,-0.215
5.518,-0.17
5.52,-0.12
5.522,-0.095
5.524,-0.08
5.526,-0.13
5.528,-0.18
5.53,-0.25
5.532,-0.25
5.534,-0.295
5.536,-0.295
5.538,-0.2
5.54,-0.09
5.542,-0.115
5.544,-0.1
5.546,-0.15
5.548,-0.22
5.55,-0.24
5.552,-0.29
5.554,-0.31
5.556,-0.255
5.558,-0.225
5.56,-0.14
5.562,-0.085
5.564,-0.055
5.566,0.065
5.568,-0.01
5.57,0.05
5.572,0.065
5.574,0.19
5.576,0.24
5.578,0.305
5.58,0.295
5.582,0.255
5.584,0.125
5.586,0.06
5.588,-0.04
5.59,-0.14
5.592,-0.19
5.594,-0.335
5.596,-0.365
5.598,-0.35
5.6,-0.34
5.602,-0.4
5.604,-0.37
5.606,-0.345
5.608,-0.34
5.61,-0.4
5.612,-0.425
5.614,-0.39
5.616,-0.335
5.618,-0.205
5.62,-0.15
5.622,-0.155
5.624,-0.145
5.626,-0.155
5.628,-0.205
5.63,-0.26
5.632,-0.285
5.634,-0.245
5.636,-0.195
5.638,-0.125
5.64,-0.105
5.642,-0.07
5.644,-0.06
5.646,-0.14
5.648,-0.24
5.65,-0.25
5.652,-0.26
5.654,-0.21
5.656,-0.195
5.658,-0.11
5.66,-0.08
5.662,-0.04
5.664,-0.08
5.666,-0.06
5.668,-0.1
5.67,-0.09
5.672,-0.145
5.674,-0.29
5.676,-0.255
5.678,-0.135
5.68,-0.06
5.682,-0.1
5.684,-0.1
5.686,-0.14
5.688,-0.175
5.69,-0.18
5.692,-0.16
5.694,-0.175
5.696,-0.165
5.698,-0.135
5.7,-0.11
5.702,-0.085
5.704,-0.065
5.706,-0.145
5.708,-0.17
5.71,-0.215
5.712,-0.185
5.714,-0.16
5.716,-0.135
5.718,-0.07
5.72,-0.05
5.722,-0.06
5.724,-0.095
5.726,-0.095
5.728,-0.12
5.73,-0.115
5.732,-0.165
5.734,-0.195
5.736,-0.12
5.738,-0.095
5.74,-0.07
5.742,-0.055
5.744,-0.08
5.746,-0.095
5.748,-0.1
5.75,-0.14
5.752,-0.155
5.754,-0.175
5.756,-0.085
5.758,-0.02
5.76,0.005
5.762,-0.01
5.764,0
5.766,-0.065
5.768,-0.145
5.77,-0.195
5.772,-0.15
5.774,-0.105
5.776,-0.055
5.778,0.02
5.78,0.045
5.782,0.03
5.784,0.035
5.786,0
5.788,-0.01
5.79,-0.025
5.792,-0.04
5.794,-0.055
5.796,0.005
5.798,0.08
5.8,0.06
5.802,0.05
5.804,0.055
5.806,0
5.808,-0.04
5.81,0
5.812,0
5.814,0.03
5.816,0.055
5.818,0.105
5.82,0.115
5.822,0.105
5.824,0.13
5.826,0.07
5.828,-0.035
5.83,-0.065
5.832,-0.03
5.834,0.03
5.836,0.015
5.838,0.025
5.84,0.045
5.842,0.03
5.844,0.02
5.846,-0.02
5.848,-0.065
5.85,-0.06
5.852,-0.095
5.854,-0.11
5.856,-0.06
5.858,-0.07
5.86,-0.065
5.862,-0.06
5.864,-0.025
5.866,-0.09
5.868,-0.145
5.87,-0.195
5.872,-0.2
5.874,-0.2
5.876,-0.11
5.878,-0.06
5.88,-0.08
5.882,-0.105
5.884,-0.1
5.886,-0.15
5.888,-0.23
5.89,-0.275
5.892,-0.25
5.894,-0.22
5.896,-0.125
5.898,-0.125
5.9,-0.11
5.902,-0.095
5.904,-0.07
5.906,-0.175
5.908,-0.255
5.91,-0.24
5.912,-0.24
5.914,-0.21
5.916,-0.155
5.918,-0.095
5.92,-0.07
5.922,-0.095
5.924,-0.155
5.926,-0.255
5.928,-0.275
5.93,-0.265
5.932,-0.25
5.934,-0.22
5.936,-0.13
5.938,-0.145
5.94,-0.115
5.942,-0.1
5.944,-0.13
5.946,-0.195
5.948,-0.22
5.95,-0.21
5.952,-0.205
5.954,-0.205
5.956,-0.185
5.958,-0.125
5.96,-0.095
5.962,-0.165
5.964,-0.15
5.966,-0.19
5.968,-0.255
5.97,-0.26
5.972,-0.205
5.974,-0.18
5.976,-0.115
5.978,-0.09
5.98,-0.06
5.982,-0.115
5.984,-0.12
5.986,-0.145
5.988,-0.25
5.99,-0.285
5.992,-0.26
5.994,-0.19
5.996,-0.1
5.998,-0.065
6,-0.095
6.002,-0.16
6.004,-0.15
6.006,-0.175
6.008,-0.21
6.01,-0.215
6.012,-0.235
6.014,-0.15
6.016,-0.08
6.018,-0.035
6.02,-0.005
6.022,-0.1
6.024,-0.09
6.026,-0.22
6.028,-0.25
6.03,-0.195
6.032,-0.145
6.034,-0.155
6.036,-0.145
6.038,-0.105
6.04,-0.08
6.042,-0.085
6.044,-0.13
6.046,-0.19
6.048,-0.17
6.05,-0.26
6.052,-0.23
6.054,-0.195
6.056,-0.135
6.058,-0.055
6.06,-0.085
6.062,-0.1
6.064,-0.16
6.066,-0.245
6.068,-0.265
6.07,-0.215
6.072,-0.21
6.074,-0.16
6.076,-0.095
6.078,-0.07
6.08,-0.1
6.082,-0.09
6.084,-0.185
6.086,-0.215
6.088,-0.195
6.09,-0.18
6.092,-0.155
6.094,-0.19
6.096,-0.105
6.098,-0.065
6.1,-0.05
6.102,-0.1
6.104,-0.165
6.106,-0.255
6.108,-0.23
6.11,-0.2
6.112,-0.225
6.114,-0.195
6.116,-0.115
6.118,-0.06
6.12,-0.08
6.122,-0.115
6.124,-0.18
6.126,-0.25
6.128,-0.265
6.13,-0.295
6.132,-0.26
6.134,-0.195
6.136,-0.14
6.138,-0.1
6.14,-0.105
6.142,-0.085
6.144,-0.145
6.146,-0.195
6.148,-0.245
6.15,-0.25
6.152,-0.205
6.154,-0.165
6.156,-0.155
6.158,-0.095
6.16,-0.075
6.162,-0.115
6.164,-0.125
6.166,-0.215
6.168,-0.3
6.17,-0.245
6.172,-0.175
6.174,-0.11
6.176,-0.095
6.178,-0.135
6.18,-0.09
6.182,-0.11
6.184,-0.125
6.186,-0.255
6.188,-0.245
6.19,-0.215
6.192,-0.17
6.194,-0.155
6.196,-0.135
6.198,-0.135
6.2,-0.135
6.202,-0.125
6.204,-0.195
6.206,-0.235
6.208,-0.225
6.21,-0.255
6.212,-0.16
6.214,-0.125
6.216,-0.09
6.218,-0.06
6.22,-0.11
6.222,-0.15
6.224,-0.14
6.226,-0.185
6.228,-0.275
6.23,-0.235
6.232,-0.185
6.234,-0.16
6.236,-0.075
6.238,-0.06
6.24,-0.085
6.242,-0.1
6.244,-0.165
6.246,-0.22
6.248,-0.275
6.25,-0.27
6.252,-0.22
6.254,-0.12
6.256,-0.11
6.258,-0.07
6.26,-0.075
6.262,-0.105
6.264,-0.14
6.266,-0.2
6.268,-0.195
6.27,-0.165
6.272,-0.125
6.274,-0.085
6.276,-0.06
6.278,-0.02
6.28,-0.04
6.282,-0.075
6.284,-0.19
6.286,-0.255
6.288,-0.225
6.29,-0.185
6.292,-0.135
6.294,-0.055
6.296,-0.045
6.298,-0.04
6.3,-0.03
6.302,-0.095
6.304,-0.18
6.306,-0.25
6.308,-0.28
6.31,-0.23
6.312,-0.19
6.314,-0.13
6.316,-0.09
6.318,-0.065
6.32,-0.115
6.322,-0.14
6.324,-0.155
6.326,-0.205
6.328,-0.25
6.33,-0.235
6.332,-0.23
6.334,-0.145
6.336,-0.115
6.338,-0.12
6.34,-0.135
6.342,-0.195
6.344,-0.255
6.346,-0.275
6.348,-0.265
6.35,-0.215
6.352,-0.21
6.354,-0.125
6.356,-0.07
6.358,-0.08
6.36,-0.14
6.362,-0.145
6.364,-0.21
6.366,-0.19
6.368,-0.245
6.37,-0.24
6.372,-0.195
6.374,-0.15
6.376,-0.125
6.378,-0.155
6.38,-0.155
6.382,-0.195
6.384,-0.21
6.386,-0.165
6.388,-0.095
6.39,-0.02
6.392,0.095
6.394,0.21
6.396,0.325
6.398,0.37
6.4,0.305
6.402,0.23
6.404,0.095
6.406,-0.075
6.408,-0.08
6.41,-0.055
6.412,-0.11
6.414,-0.175
6.416,-0.32
6.418,-0.385
6.42,-0.385
6.422,-0.435
6.424,-0.445
6.426,-0.445
6.428,-0.43
6.43,-0.415
6.432,-0.31
6.434,-0.25
6.436,-0.21
6.438,-0.195
6.44,-0.16
6.442,-0.205
6.444,-0.28
6.446,-0.285
6.448,-0.27
6.45,-0.27
6.452,-0.21
6.454,-0.095
6.456,-0.085
6.458,-0.075
6.46,-0.125
6.462,-0.18
6.464,-0.2
6.466,-0.215
6.468,-0.17
6.47,-0.205
6.472,-0.15
6.474,-0.085
6.476,-0.03
6.478,-0.095
6.48,-0.085
6.482,-0.17
6.484,-0.22
6.486,-0.22
6.488,-0.195
6.49,-0.11
6.492,-0.07
6.494,-0.07
6.496,-0.025
6.498,-0.025
6.5,-0.035
6.502,-0.14
6.504,-0.155
6.506,-0.13
6.508,-0.245
6.51,-0.225
6.512,-0.105
6.514,-0.075
6.516,-0.05
6.518,-0.09
6.52,-0.075
6.522,-0.135
6.524,-0.195
6.526,-0.19
6.528,-0.195
6.53,-0.155
6.532,-0.09
6.534,-0.005
6.536,-0.01
6.538,0.01
6.54,0.025
6.542,0.005
6.544,-0.1
6.546,-0.22
6.548,-0.255
6.55,-0.195
6.552,-0.095
6.554,-0.06
6.556,-0.05
6.558,-0.065
6.56,-0.025
6.562,-0.13
6.564,-0.195
6.566,-0.14
6.568,-0.12
6.57,-0.125
6.572,-0.085
6.574,-0.015
6.576,0.05
6.578,0.055
6.58,-0.01
6.582,-0.155
6.584,-0.19
6.586,-0.145
6.588,-0.065
6.59,-0.05
6.592,-0.055
6.594,-0.015
6.596,0.04
6.598,0.015
6.6,-0.025
6.602,-0.055
6.604,-0.075
6.606,-0.03
6.608,-0.055
6.61,0.01
6.612,0.065
6.614,0.08
6.616,0.095
6.618,0.05
6.62,0.045
6.622,0.055
6.624,0.005
6.626,-0.015
6.628,0.015
6.63,0.115
6.632,0.14
6.634,0.155
6.636,0.14
6.638,0.14
6.64,0.06
6.642,0.03
6.644,0.005
6.646,0.025
6.648,0.01
6.65,0.03
6.652,0.16
6.654,0.19
6.656,0.125
6.658,0.09
6.66,0.045
6.662,-0.03
6.664,-0.075
6.666,-0.065
6.668,-0.03
6.67,-0.01
6.672,-0.005
6.674,0.035
6.676,0.035
6.678,0.02
6.68,-0.07
6.682,-0.15
6.684,-0.215
6.686,-0.17
6.688,-0.125
6.69,-0.075
6.692,-0.055
6.694,-0.04
6.696,-0.07
6.698,-0.09
6.7,-0.125
6.702,-0.175
6.704,-0.195
6.706,-0.22
6.708,-0.165
6.71,-0.14
6.712,-0.125
6.714,-0.075
6.716,-0.055
6.718,-0.085
6.72,-0.115
6.722,-0.18
6.724,-0.21
6.726,-0.18
6.728,-0.165
6.73,-0.14
6.732,-0.095
6.734,-0.05
6.736,-0.035
6.738,-0.04
6.74,-0.1
6.742,-0.225
6.744,-0.265
6.746,-0.26
6.748,-0.235
6.75,-0.135
6.752,-0.145
6.754,-0.09
6.756,-0.1
6.758,-0.12
6.76,-0.21
6.762,-0.26
6.764,-0.24
6.766,-0.215
6.768,-0.185
6.77,-0.125
6.772,-0.08
6.774,-0.065
6.776,-0.075
6.778,-0.105
6.78,-0.17
6.782,-0.23
6.784,-0.245
6.786,-0.195
6.788,-0.15
6.79,-0.1
6.792,-0.04
6.794,0.035
6.796,-0.045
6.798,-0.095
6.8,-0.175
6.802,-0.16
6.804,-0.215
6.806,-0.19
6.808,-0.2
6.81,-0.09
6.812,-0.085
6.814,-0.015
6.816,-0.005
6.818,-0.085
6.82,-0.195
6.822,-0.25
6.824,-0.27
6.826,-0.19
6.828,-0.21
6.83,-0.13
6.832,-0.055
6.834,-0.065
6.836,-0.075
6.838,-0.085
6.84,-0.12
6.842,-0.18
6.844,-0.2
6.846,-0.155
6.848,-0.165
6.85,-0.055
6.852,-0.015
6.854,0.02
6.856,-0.07
6.858,-0.135
6.86,-0.16
6.862,-0.135
6.864,-0.165
6.866,-0.135
6.868,-0.15
6.87,-0.115
6.872,-0.035
6.874,-0.015
6.876,-0.075
6.878,-0.145
6.88,-0.135
6.882,-0.17
6.884,-0.155
6.886,-0.26
6.888,-0.15
6.89,-0.065
6.892,-0.055
6.894,-0.035
6.896,-0.075
6.898,-0.125
6.9,-0.2
6.902,-0.215
6.904,-0.16
6.906,-0.145
6.908,-0.11
6.91,-0.04
6.912,-0.055
6.914,-0.055
6.916,-0.095
6.918,-0.135
6.92,-0.18
6.922,-0.185
6.924,-0.21
6.926,-0.14
6.928,-0.125
6.93,-0.09
6.932,-0.055
6.934,-0.04
6.936,-0.025
6.938,-0.08
6.94,-0.19
6.942,-0.235
6.944,-0.24
6.946,-0.175
6.948,-0.155
6.95,-0.1
6.952,-0.095
6.954,-0.075
6.956,-0.095
6.958,-0.135
6.96,-0.175
6.962,-0.255
6.964,-0.21
6.966,-0.16
6.968,-0.105
6.97,-0.12
6.972,-0.095
6.974,-0.07
6.976,-0.145
6.978,-0.145
6.98,-0.15
6.982,-0.255
6.984,-0.23
6.986,-0.215
6.988,-0.13
6.99,-0.075
6.992,-0.065
6.994,-0.08
6.996,-0.1
6.998,-0.135
7,-0.165
7.002,-0.175
7.004,-0.205
7.006,-0.19
7.008,-0.14
7.01,-0.105
7.012,-0.04
7.014,-0.05
7.016,-0.1
7.018,-0.17
7.02,-0.205
7.022,-0.195
7.024,-0.185
7.026,-0.185
7.028,-0.155
7.03,-0.09
7.032,-0.09
7.034,-0.1
7.036,-0.115
7.038,-0.16
7.04,-0.195
7.042,-0.215
7.044,-0.235
7.046,-0.18
7.048,-0.1
7.05,-0.045
7.052,0.015
7.054,-0.06
7.056,-0.135
7.058,-0.22
7.06,-0.205
7.062,-0.21
7.064,-0.2
7.066,-0.17
7.068,-0.07
7.07,-0.07
7.072,-0.035
7.074,-0.005
7.076,-0.065
7.078,-0.105
7.08,-0.165
7.082,-0.16
7.084,-0.19
7.086,-0.125
7.088,-0.07
7.09,-0.09
7.092,-0.04
7.094,-0.03
7.096,-0.09
7.098,-0.155
7.1,-0.18
7.102,-0.18
7.104,-0.135
7.106,-0.12
7.108,-0.07
7.11,-0.055
7.112,-0.04
7.114,-0.03
7.116,-0.045
7.118,-0.115
7.12,-0.195
7.122,-0.2
7.124,-0.19
7.126,-0.145
7.128,-0.095
7.13,-0.08
7.132,-0.08
7.134,-0.09
7.136,-0.1
7.138,-0.17
7.14,-0.235
7.142,-0.215
7.144,-0.2
7.146,-0.145
7.148,-0.06
7.15,-0.055
7.152,-0.075
7.154,-0.115
7.156,-0.095
7.158,-0.235
7.16,-0.235
7.162,-0.215
7.164,-0.235
7.166,-0.175
7.168,-0.09
7.17,-0.095
7.172,-0.095
7.174,-0.105
7.176,-0.15
7.178,-0.23
7.18,-0.235
7.182,-0.22
7.184,-0.245
7.186,-0.185
7.188,-0.145
7.19,-0.16
7.192,-0.145
7.194,-0.135
7.196,-0.2
7.198,-0.245
7.2,-0.235
7.202,-0.19
7.204,-0.06
7.206,0.07
7.208,0.23
7.21,0.28
7.212,0.3
7.214,0.34
7.216,0.345
7.218,0.265
7.22,0.115
7.222,-0.015
7.224,-0.025
7.226,-0.015
7.228,-0.02
7.23,-0.08
7.232,-0.19
7.234,-0.305
7.236,-0.405
7.238,-0.42
7.24,-0.44
7.242,-0.435
7.244,-0.4
7.246,-0.305
7.248,-0.26
7.25,-0.205
7.252,-0.205
7.254,-0.25
7.256,-0.25
7.258,-0.27
7.26,-0.295
7.262,-0.23
7.264,-0.18
7.266,-0.14
7.268,-0.07
7.27,-0.025
7.272,-0.1
7.274,-0.035
7.276,-0.165
7.278,-0.22
7.28,-0.22
7.282,-0.235
7.284,-0.155
7.286,-0.145
7.288,-0.07
7.29,-0.09
7.292,-0.08
7.294,-0.12
7.296,-0.16
7.298,-0.195
7.3,-0.175
7.302,-0.15
7.304,-0.185
7.306,-0.09
7.308,-0.065
7.31,-0.05
7.312,-0.04
7.314,-0.095
7.316,-0.12
7.318,-0.2
7.32,-0.15
7.322,-0.13
7.324,-0.125
7.326,-0.11
7.328,-0.015
7.33,0.04
7.332,-0.06
7.334,-0.075
7.336,-0.095
7.338,-0.21
7.34,-0.215
7.342,-0.16
7.344,-0.16
7.346,-0.075
7.348,-0.07
7.35,-0.015
7.352,-0.025
7.354,-0.05
7.356,-0.06
7.358,-0.16
7.36,-0.25
7.362,-0.175
7.364,-0.16
7.366,-0.055
7.368,-0.01
7.37,0.005
7.372,-0.05
7.374,-0.07
7.376,-0.125
7.378,-0.145
7.38,-0.085
7.382,-0.135
7.384,-0.095
7.386,0.025
7.388,0.015
7.39,0.04
7.392,-0.05
7.394,-0.03
7.396,-0.09
7.398,-0.105
7.4,-0.1
7.402,-0.095
7.404,-0.08
7.406,-0.025
7.408,0.01
7.41,0.02
7.412,0.04
7.414,0.02
7.416,-0.065
7.418,-0.085
7.42,-0.07
7.422,-0.05
7.424,-0.025
7.426,0.02
7.428,0.095
7.43,0.115
7.432,0.085
7.434,0.055
7.436,0
7.438,-0.04
7.44,-0.075
7.442,0.03
7.444,0.025
7.446,0.095
7.448,0.155
7.45,0.195
7.452,0.145
7.454,0.05
7.456,0.015
7.458,0.045
7.46,0.005
7.462,0.045
7.464,0.105
7.466,0.1
7.468,0.1
7.47,0.135
7.472,0.125
7.474,0.075
7.476,-0.015
7.478,-0.065
7.48,-0.1
7.482,-0.11
7.484,0.015
7.486,0.015
7.488,0.025
7.49,0.015
7.492,0.005
7.494,-0.04
7.496,-0.095
7.498,-0.13
7.5,-0.145
7.502,-0.1
7.504,-0.085
7.506,-0.065
7.508,-0.055
7.51,-0.085
7.512,-0.08
7.514,-0.15
7.516,-0.17
7.518,-0.2
7.52,-0.185
7.522,-0.21
7.524,-0.14
7.526,-0.07
7.528,-0.02
7.53,-0.06
7.532,-0.165
7.534,-0.195
7.536,-0.205
7.538,-0.215
7.54,-0.26
7.542,-0.255
7.544,-0.19
7.546,-0.09
7.548,-0.075
7.55,-0.125
7.552,-0.15
7.554,-0.23
7.556,-0.225
7.558,-0.22
7.56,-0.24
7.562,-0.245
7.564,-0.175
7.566,-0.12
7.568,-0.075
7.57,-0.09
7.572,-0.13
7.574,-0.18
7.576,-0.235
7.578,-0.25
7.58,-0.25
7.582,-0.205
7.584,-0.115
7.586,-0.055
7.588,-0.02
7.59,-0.105
7.592,-0.13
7.594,-0.215
7.596,-0.285
7.598,-0.25
7.6,-0.265
7.602,-0.245
7.604,-0.19
7.606,-0.115
7.608,-0.1
7.61,-0.105
7.612,-0.125
7.614,-0.195
7.616,-0.225
7.618,-0.22
7.62,-0.2
7.622,-0.18
7.624,-0.19
7.626,-0.125
7.628,-0.055
7.63,-0.075
7.632,-0.09
7.634,-0.18
7.636,-0.24
7.638,-0.225
7.64,-0.17
7.642,-0.18
7.644,-0.14
7.646,-0.085
7.648,-0.09
7.65,-0.095
7.652,-0.135
7.654,-0.195
7.656,-0.25
7.658,-0.26
7.66,-0.25
7.662,-0.2
7.664,-0.125
7.666,-0.115
7.668,-0.1
7.67,-0.08
7.672,-0.15
7.674,-0.19
7.676,-0.205
7.678,-0.24
7.68,-0.235
7.682,-0.165
7.684,-0.105
7.686,-0.105
7.688,-0.06
7.69,-0.06
7.692,-0.115
7.694,-0.16
7.696,-0.195
7.698,-0.21
7.7,-0.185
7.702,-0.165
7.704,-0.105
7.706,-0.085
7.708,-0.09
7.71,-0.13
7.712,-0.15
7.714,-0.225
7.716,-0.25
7.718,-0.255
7.72,-0.23
7.722,-0.19
7.724,-0.12
7.726,-0.12
7.728,-0.075
7.73,-0.105
7.732,-0.15
7.734,-0.22
7.736,-0.26
7.738,-0.245
7.74,-0.19
7.742,-0.185
7.744,-0.16
7.746,-0.075
7.748,-0.11
7.75,-0.115
7.752,-0.155
7.754,-0.23
7.756,-0.28
7.758,-0.225
7.76,-0.21
7.762,-0.145
7.764,-0.105
7.766,-0.105
7.768,-0.085
7.77,-0.125
7.772,-0.165
7.774,-0.16
7.776,-0.185
7.778,-0.205
7.78,-0.19
7.782,-0.185
7.784,-0.165
7.786,-0.1
7.788,-0.095
7.79,-0.13
7.792,-0.185
7.794,-0.245
7.796,-0.255
7.798,-0.245
7.8,-0.24
7.802,-0.115
7.804,-0.11
7.806,-0.115
7.808,-0.14
7.81,-0.12
7.812,-0.17
7.814,-0.22
7.816,-0.265
7.818,-0.255
7.82,-0.185
7.822,-0.165
7.824,-0.145
7.826,-0.075
7.828,-0.095
7.83,-0.145
7.832,-0.2
7.834,-0.235
7.836,-0.255
7.838,-0.25
7.84,-0.18
7.842,-0.175
7.844,-0.09
7.846,-0.12
7.848,-0.135
7.85,-0.115
7.852,-0.175
7.854,-0.19
7.856,-0.23
7.858,-0.26
7.86,-0.29
7.862,-0.22
7.864,-0.165
7.866,-0.12
7.868,-0.145
7.87,-0.14
7.872,-0.195
7.874,-0.235
7.876,-0.17
7.878,-0.305
7.88,-0.245
7.882,-0.145
7.884,-0.11
7.886,-0.08
7.888,-0.125
7.89,-0.115
7.892,-0.135
7.894,-0.19
7.896,-0.27
7.898,-0.25
7.9,-0.195
7.902,-0.115
7.904,-0.06
7.906,-0.095
7.908,-0.14
7.91,-0.17
7.912,-0.2
7.914,-0.25
7.916,-0.21
7.918,-0.205
7.92,-0.195
7.922,-0.095
7.924,-0.06
7.926,-0.075
7.928,-0.105
7.93,-0.1
7.932,-0.18
7.934,-0.245
7.936,-0.235
7.938,-0.175
7.94,-0.16
7.942,-0.08
7.944,-0.105
7.946,-0.13
7.948,-0.125
7.95,-0.135
7.952,-0.205
7.954,-0.275
7.956,-0.275
7.958,-0.235
7.96,-0.23
7.962,-0.145
7.964,-0.085
7.966,-0.11
7.968,-0.15
7.97,-0.225
7.972,-0.205
7.974,-0.255
7.976,-0.275
7.978,-0.275
7.98,-0.225
7.982,-0.17
7.984,-0.17
7.986,-0.19
7.988,-0.185
7.99,-0.2
7.992,-0.235
7.994,-0.28
7.996,-0.28
7.998,-0.25
8,-0.21
8.002,-0.15
8.004,-0.155
8.006,-0.115
8.008,-0.165
8.01,-0.21
8.012,-0.26
8.014,-0.335
8.016,-0.27
8.018,-0.295
8.02,-0.225
8.022,-0.16
8.024,-0.145
8.026,-0.085
8.028,-0.045
8.03,-0.01
8.032,-0.015
8.034,0.015
8.036,0.07
8.038,0.16
8.04,0.27
8.042,0.3
8.044,0.325
8.046,0.22
8.048,0.06
8.05,-0.085
8.052,-0.185
8.054,-0.275
8.056,-0.37
8.058,-0.425
8.06,-0.475
8.062,-0.41
8.064,-0.355
8.066,-0.32
8.068,-0.315
8.07,-0.355
8.072,-0.405
8.074,-0.385
8.076,-0.385
8.078,-0.345
8.08,-0.31
8.082,-0.245
8.084,-0.2
8.086,-0.195
8.088,-0.155
8.09,-0.195
8.092,-0.3
8.094,-0.295
8.096,-0.32
8.098,-0.265
8.1,-0.19
8.102,-0.13
8.104,-0.09
8.106,-0.09
8.108,-0.16
8.11,-0.185
8.112,-0.215
8.114,-0.26
8.116,-0.275
8.118,-0.255
8.12,-0.125
8.122,-0.145
8.124,-0.105
8.126,-0.12
8.128,-0.115
8.13,-0.12
8.132,-0.26
8.134,-0.29
8.136,-0.26
8.138,-0.24
8.14,-0.185
8.142,-0.12
8.144,-0.11
8.146,-0.11
8.148,-0.12
8.15,-0.175
8.152,-0.18
8.154,-0.165
8.156,-0.22
8.158,-0.19
8.16,-0.12
8.162,-0.145
8.164,-0.105
8.166,-0.12
8.168,-0.125
8.17,-0.22
8.172,-0.23
8.174,-0.205
8.176,-0.26
8.178,-0.255
8.18,-0.115
8.182,-0.09
8.184,-0.09
8.186,-0.07
8.188,-0.055
8.19,-0.175
8.192,-0.21
8.194,-0.18
8.196,-0.215
8.198,-0.19
8.2,-0.145
8.202,-0.13
8.204,-0.07
8.206,-0.055
8.208,-0.115
8.21,-0.16
8.212,-0.14
8.214,-0.14
8.216,-0.17
8.218,-0.17
8.22,-0.12
8.222,-0.055
8.224,-0.03
8.226,-0.045
8.228,-0.06
8.23,-0.11
8.232,-0.16
8.234,-0.11
8.236,-0.035
8.238,-0.025
8.24,-0.03
8.242,-0.025
8.244,0.025
8.246,-0.015
8.248,-0.04
8.25,-0.075
8.252,-0.11
8.254,-0.1
8.256,-0.09
8.258,-0.05
8.26,0.02
8.262,0.055
8.264,0.065
8.266,0.06
8.268,0.01
8.27,-0.02
8.272,-0.04
8.274,-0.045
8.276,-0.045
8.278,0.03
8.28,0.1
8.282,0.06
8.284,0.08
8.286,0.085
8.288,0.07
8.29,-0.045
8.292,-0.09
8.294,-0.08
8.296,-0.08
8.298,-0.01
8.3,0.035
8.302,0.105
8.304,0.06
8.306,-0.035
8.308,-0.04
8.31,-0.065
8.312,-0.135
8.314,-0.125
8.316,-0.13
8.318,-0.095
8.32,-0.05
8.322,-0.09
8.324,-0.1
8.326,-0.095
8.328,-0.14
8.33,-0.175
8.332,-0.18
8.334,-0.24
8.336,-0.225
8.338,-0.165
8.34,-0.155
8.342,-0.11
8.344,-0.15
8.346,-0.175
8.348,-0.21
8.35,-0.255
8.352,-0.305
8.354,-0.29
8.356,-0.235
8.358,-0.25
8.36,-0.155
8.362,-0.135
8.364,-0.13
8.366,-0.11
8.368,-0.155
8.37,-0.25
8.372,-0.275
8.374,-0.34
8.376,-0.32
8.378,-0.265
8.38,-0.2
8.382,-0.155
8.384,-0.14
8.386,-0.155
8.388,-0.215
8.39,-0.305
8.392,-0.32
8.394,-0.27
8.396,-0.265
8.398,-0.215
8.4,-0.13
8.402,-0.15
8.404,-0.195
8.406,-0.195
8.408,-0.23
8.41,-0.275
8.412,-0.355
8.414,-0.32
8.416,-0.32
8.418,-0.22
8.42,-0.21
8.422,-0.185
8.424,-0.135
8.426,-0.16
8.428,-0.165
8.43,-0.26
8.432,-0.3
8.434,-0.265
8.436,-0.285
8.438,-0.185
8.44,-0.115
8.442,-0.17
8.444,-0.155
8.446,-0.22
8.448,-0.27
8.45,-0.32
8.452,-0.295
8.454,-0.315
8.456,-0.26
8.458,-0.2
8.46,-0.155
8.462,-0.12
8.464,-0.165
8.466,-0.19
8.468,-0.245
8.47,-0.28
8.472,-0.305
8.474,-0.3
8.476,-0.285
8.478,-0.185
8.48,-0.145
8.482,-0.125
8.484,-0.195
8.486,-0.185
8.488,-0.235
8.49,-0.265
8.492,-0.29
8.494,-0.275
8.496,-0.18
8.498,-0.17
8.5,-0.155
8.502,-0.135
8.504,-0.145
8.506,-0.175
8.508,-0.245
8.51,-0.265
8.512,-0.27
8.514,-0.31
8.516,-0.26
8.518,-0.195
8.52,-0.195
8.522,-0.175
8.524,-0.2
8.526,-0.2
8.528,-0.26
8.53,-0.295
8.532,-0.265
8.534,-0.315
8.536,-0.215
8.538,-0.19
8.54,-0.18
8.542,-0.14
8.544,-0.145
8.546,-0.19
8.548,-0.28
8.55,-0.335
8.552,-0.315
8.554,-0.285
8.556,-0.25
8.558,-0.185
8.56,-0.145
8.562,-0.175
8.564,-0.145
8.566,-0.165
8.568,-0.25
8.57,-0.345
8.572,-0.325
8.574,-0.31
8.576,-0.265
8.578,-0.185
8.58,-0.15
8.582,-0.135
8.584,-0.185
8.586,-0.205
8.588,-0.305
8.59,-0.35
8.592,-0.305
8.594,-0.32
8.596,-0.31
8.598,-0.205
8.6,-0.17
8.602,-0.185
8.604,-0.23
8.606,-0.26
8.608,-0.305
8.61,-0.335
8.612,-0.33
8.614,-0.3
8.616,-0.275
8.618,-0.195
8.62,-0.185
8.622,-0.185
8.624,-0.175
8.626,-0.285
8.628,-0.3
8.63,-0.285
8.632,-0.315
8.634,-0.285
8.636,-0.255
8.638,-0.19
8.64,-0.2
8.642,-0.18
8.644,-0.22
8.646,-0.235
8.648,-0.315
8.65,-0.345
8.652,-0.325
8.654,-0.315
8.656,-0.23
8.658,-0.2
8.66,-0.16
8.662,-0.195
8.664,-0.23
8.666,-0.245
8.668,-0.31
8.67,-0.38
8.672,-0.41
8.674,-0.31
8.676,-0.285
8.678,-0.2
8.68,-0.17
8.682,-0.22
8.684,-0.255
8.686,-0.31
8.688,-0.315
8.69,-0.33
8.692,-0.335
8.694,-0.33
8.696,-0.31
8.698,-0.24
8.7,-0.21
8.702,-0.205
8.704,-0.26
8.706,-0.31
8.708,-0.34
8.71,-0.365
8.712,-0.35
8.714,-0.335
8.716,-0.25
8.718,-0.23
8.72,-0.17
8.722,-0.185
8.724,-0.205
8.726,-0.25
8.728,-0.31
8.73,-0.345
8.732,-0.345
8.734,-0.32
8.736,-0.245
8.738,-0.195
8.74,-0.2
8.742,-0.175
8.744,-0.23
8.746,-0.27
8.748,-0.29
8.75,-0.305
8.752,-0.31
8.754,-0.28
8.756,-0.23
8.758,-0.22
8.76,-0.21
8.762,-0.195
8.764,-0.22
8.766,-0.285
8.768,-0.325
8.77,-0.34
8.772,-0.325
8.774,-0.265
8.776,-0.205
8.778,-0.175
8.78,-0.165
8.782,-0.19
8.784,-0.245
8.786,-0.27
8.788,-0.31
8.79,-0.275
8.792,-0.32
8.794,-0.27
8.796,-0.21
8.798,-0.175
8.8,-0.165
8.802,-0.195
8.804,-0.21
8.806,-0.28
8.808,-0.315
8.81,-0.365
8.812,-0.355
8.814,-0.32
8.816,-0.215
8.818,-0.21
8.82,-0.24
8.822,-0.23
8.824,-0.255
8.826,-0.355
8.828,-0.355
8.83,-0.34
8.832,-0.325
8.834,-0.295
8.836,-0.23
8.838,-0.23
8.84,-0.18
8.842,-0.19
8.844,-0.17
8.846,-0.23
8.848,-0.355
8.85,-0.39
8.852,-0.41
8.854,-0.32
8.856,-0.23
8.858,-0.205
8.86,-0.225
8.862,-0.24
8.864,-0.285
8.866,-0.33
8.868,-0.375
8.87,-0.385
8.872,-0.345
8.874,-0.335
8.876,-0.27
8.878,-0.24
8.88,-0.25
8.882,-0.25
8.884,-0.31
8.886,-0.39
8.888,-0.415
8.89,-0.39
8.892,-0.305
8.894,-0.235
8.896,-0.175
8.898,-0.17
8.9,-0.14
8.902,-0.025
8.904,-0.01
8.906,-0.06
8.908,0.065
8.91,0.095
8.912,0.1
8.914,0.13
8.916,0.09
8.918,-0.01
8.92,-0.095
8.922,-0.13
8.924,-0.27
8.926,-0.42
8.928,-0.525
8.93,-0.595
8.932,-0.57
8.934,-0.53
8.936,-0.41
8.938,-0.405
8.94,-0.365
8.942,-0.395
8.944,-0.41
8.946,-0.455
8.948,-0.43
8.95,-0.445
8.952,-0.365
8.954,-0.31
8.956,-0.275
8.958,-0.25
8.96,-0.245
8.962,-0.225
8.964,-0.26
8.966,-0.33
8.968,-0.355
8.97,-0.33
8.972,-0.315
8.974,-0.285
8.976,-0.23
8.978,-0.2
8.98,-0.18
8.982,-0.235
8.984,-0.275
8.986,-0.305
8.988,-0.35
8.99,-0.335
8.992,-0.325
8.994,-0.32
8.996,-0.215
8.998,-0.16
9,-0.175
9.002,-0.225
9.004,-0.32
9.006,-0.32
9.008,-0.325
9.01,-0.365
9.012,-0.35
9.014,-0.225
9.016,-0.175
9.018,-0.195
9.02,-0.255
9.022,-0.23
9.024,-0.25
9.026,-0.285
9.028,-0.32
9.03,-0.305
9.032,-0.235
9.034,-0.265
9.036,-0.22
9.038,-0.175
9.04,-0.205
9.042,-0.23
9.044,-0.27
9.046,-0.335
9.048,-0.355
9.05,-0.33
9.052,-0.26
9.054,-0.21
9.056,-0.14
9.058,-0.15
9.06,-0.23
9.062,-0.215
9.064,-0.255
9.066,-0.325
9.068,-0.335
9.07,-0.265
9.072,-0.295
9.074,-0.22
9.076,-0.155
9.078,-0.15
9.08,-0.205
9.082,-0.185
9.084,-0.26
9.086,-0.33
9.088,-0.32
9.09,-0.315
9.092,-0.275
9.094,-0.17
9.096,-0.095
9.098,-0.12
9.1,-0.12
9.102,-0.08
9.104,-0.16
9.106,-0.225
9.108,-0.24
9.11,-0.2
9.112,-0.125
9.114,-0.09
9.116,-0.055
9.118,-0.04
9.12,-0.08
9.122,-0.11
9.124,-0.25
9.126,-0.17
9.128,-0.205
9.13,-0.23
9.132,-0.135
9.134,-0.125
9.136,-0.035
9.138,-0.04
9.14,0.03
9.142,-0.05
9.144,-0.12
9.146,-0.145
9.148,-0.15
9.15,-0.21
9.152,-0.135
9.154,-0.11
9.156,-0.05
9.158,-0.035
9.16,-0.045
9.162,-0.085
9.164,-0.135
9.166,-0.135
9.168,-0.16
9.17,-0.165
9.172,-0.125
9.174,-0.1
9.176,-0.08
9.178,-0.07
9.18,-0.1
9.182,-0.2
9.184,-0.24
9.186,-0.285
9.188,-0.295
9.19,-0.26
9.192,-0.165
9.194,-0.12
9.196,-0.14
9.198,-0.245
9.2,-0.24
9.202,-0.31
9.204,-0.37
9.206,-0.37
9.208,-0.385
9.21,-0.325
9.212,-0.335
9.214,-0.22
9.216,-0.21
9.218,-0.205
9.22,-0.245
9.222,-0.275
9.224,-0.32
9.226,-0.335
9.228,-0.33
9.23,-0.375
9.232,-0.345
9.234,-0.305
9.236,-0.27
9.238,-0.275
9.24,-0.295
9.242,-0.31
9.244,-0.38
9.246,-0.37
9.248,-0.415
9.25,-0.38
9.252,-0.31
9.254,-0.27
9.256,-0.21
9.258,-0.235
9.26,-0.285
9.262,-0.31
9.264,-0.405
9.266,-0.38
9.268,-0.355
9.27,-0.275
9.272,-0.245
9.274,-0.29
9.276,-0.3
9.278,-0.295
9.28,-0.3
9.282,-0.315
9.284,-0.4
9.286,-0.43
9.288,-0.4
9.29,-0.35
9.292,-0.3
9.294,-0.255
9.296,-0.235
9.298,-0.235
9.3,-0.32
9.302,-0.365
9.304,-0.39
9.306,-0.44
9.308,-0.4
9.31,-0.36
9.312,-0.245
9.314,-0.25
9.316,-0.16
9.318,-0.215
9.32,-0.265
9.322,-0.375
9.324,-0.395
9.326,-0.44
9.328,-0.44
9.33,-0.39
9.332,-0.285
9.334,-0.285
9.336,-0.25
9.338,-0.315
9.34,-0.315
9.342,-0.315
9.344,-0.315
9.346,-0.345
9.348,-0.355
9.35,-0.33
9.352,-0.29
9.354,-0.26
9.356,-0.22
9.358,-0.24
9.36,-0.29
9.362,-0.335
9.364,-0.39
9.366,-0.365
9.368,-0.38
9.37,-0.345
9.372,-0.28
9.374,-0.255
9.376,-0.235
9.378,-0.26
9.38,-0.28
9.382,-0.35
9.384,-0.36
9.386,-0.33
9.388,-0.34
9.39,-0.315
9.392,-0.28
9.394,-0.23
9.396,-0.255
9.398,-0.28
9.4,-0.3
9.402,-0.38
9.404,-0.365
9.406,-0.365
9.408,-0.355
9.41,-0.375
9.412,-0.305
9.414,-0.23
9.416,-0.245
9.418,-0.265
9.42,-0.27
9.422,-0.385
9.424,-0.4
9.426,-0.385
9.428,-0.375
9.43,-0.325
9.432,-0.26
9.434,-0.255
9.436,-0.235
9.438,-0.24
9.44,-0.295
9.442,-0.36
9.444,-0.41
9.446,-0.455
9.448,-0.44
9.45,-0.4
9.452,-0.28
9.454,-0.285
9.456,-0.33
9.458,-0.31
9.46,-0.335
9.462,-0.35
9.464,-0.4
9.466,-0.4
9.468,-0.395
9.47,-0.345
9.472,-0.27
9.474,-0.26
9.476,-0.23
9.478,-0.28
9.48,-0.305
9.482,-0.405
9.484,-0.47
9.486,-0.415
9.488,-0.405
9.49,-0.34
9.492,-0.315
9.494,-0.285
9.496,-0.295
9.498,-0.33
9.5,-0.32
9.502,-0.385
9.504,-0.43
9.506,-0.41
9.508,-0.395
9.51,-0.38
9.512,-0.325
9.514,-0.3
9.516,-0.275
9.518,-0.32
9.52,-0.305
9.522,-0.41
9.524,-0.435
9.526,-0.455
9.528,-0.425
9.53,-0.36
9.532,-0.29
9.534,-0.285
9.536,-0.29
9.538,-0.295
9.54,-0.315
9.542,-0.42
9.544,-0.44
9.546,-0.45
9.548,-0.41
9.55,-0.32
9.552,-0.325
9.554,-0.275
9.556,-0.31
9.558,-0.34
9.56,-0.365
9.562,-0.465
9.564,-0.44
9.566,-0.42
9.568,-0.365
9.57,-0.37
9.572,-0.305
9.574,-0.265
9.576,-0.28
9.578,-0.27
9.58,-0.31
9.582,-0.37
9.584,-0.4
9.586,-0.52
9.588,-0.495
9.59,-0.375
9.592,-0.325
9.594,-0.265
9.596,-0.33
9.598,-0.38
9.6,-0.4
9.602,-0.465
9.604,-0.395
9.606,-0.45
9.608,-0.345
9.61,-0.285
9.612,-0.28
9.614,-0.305
9.616,-0.33
9.618,-0.345
9.62,-0.4
9.622,-0.435
9.624,-0.43
9.626,-0.41
9.628,-0.365
9.63,-0.325
9.632,-0.255
9.634,-0.275
9.636,-0.315
9.638,-0.28
9.64,-0.355
9.642,-0.41
9.644,-0.4
9.646,-0.37
9.648,-0.355
9.65,-0.31
9.652,-0.29
9.654,-0.24
9.656,-0.29
9.658,-0.325
9.66,-0.37
9.662,-0.41
9.664,-0.35
9.666,-0.385
9.668,-0.365
9.67,-0.285
9.672,-0.27
9.674,-0.295
9.676,-0.355
9.678,-0.425
9.68,-0.47
9.682,-0.49
9.684,-0.48
9.686,-0.46
9.688,-0.35
9.69,-0.265
9.692,-0.22
9.694,-0.25
9.696,-0.27
9.698,-0.315
9.7,-0.395
9.702,-0.42
9.704,-0.44
9.706,-0.415
9.708,-0.4
9.71,-0.3
9.712,-0.225
9.714,-0.18
9.716,-0.275
9.718,-0.315
9.72,-0.36
9.722,-0.385
9.724,-0.385
9.726,-0.38
9.728,-0.41
9.73,-0.345
9.732,-0.25
9.734,-0.265
9.736,-0.295
9.738,-0.295
9.74,-0.385
9.742,-0.465
9.744,-0.49
9.746,-0.405
9.748,-0.42
9.75,-0.36
9.752,-0.335
9.754,-0.305
9.756,-0.28
9.758,-0.395
9.76,-0.425
9.762,-0.44
9.764,-0.515
9.766,-0.43
9.768,-0.42
9.77,-0.385
9.772,-0.335
9.774,-0.28
9.776,-0.215
9.778,-0.155
9.78,-0.165
9.782,-0.095
9.784,-0.04
9.786,0.075
9.788,0.14
9.79,0.19
9.792,0.075
9.794,-0.06
9.796,-0.165
9.798,-0.215
9.8,-0.305
9.802,-0.405
9.804,-0.515
9.806,-0.645
9.808,-0.625
9.81,-0.54
9.812,-0.475
9.814,-0.53
9.816,-0.485
9.818,-0.51
9.82,-0.615
9.822,-0.595
9.824,-0.555
9.826,-0.53
9.828,-0.4
9.83,-0.365
9.832,-0.35
9.834,-0.355
9.836,-0.37
9.838,-0.395
9.84,-0.455
9.842,-0.445
9.844,-0.48
9.846,-0.405
9.848,-0.345
9.85,-0.305
9.852,-0.26
9.854,-0.265
9.856,-0.275
9.858,-0.35
9.86,-0.39
9.862,-0.395
9.864,-0.365
9.866,-0.445
9.868,-0.38
9.87,-0.275
9.872,-0.235
9.874,-0.23
9.876,-0.28
9.878,-0.345
9.88,-0.4
9.882,-0.38
9.884,-0.39
9.886,-0.345
9.888,-0.285
9.89,-0.25
9.892,-0.225
9.894,-0.255
9.896,-0.29
9.898,-0.335
9.9,-0.345
9.902,-0.385
9.904,-0.365
9.906,-0.38
9.908,-0.3
9.91,-0.28
9.912,-0.23
9.914,-0.225
9.916,-0.255
9.918,-0.31
9.92,-0.395
9.922,-0.395
9.924,-0.36
9.926,-0.315
9.928,-0.25
9.93,-0.255
9.932,-0.205
9.934,-0.21
9.936,-0.225
9.938,-0.35
9.94,-0.35
9.942,-0.385
9.944,-0.385
9.946,-0.37
9.948,-0.25
9.95,-0.18
9.952,-0.185
9.954,-0.215
9.956,-0.205
9.958,-0.29
9.96,-0.3
9.962,-0.365
9.964,-0.325
9.966,-0.27
9.968,-0.245
9.97,-0.19
9.972,-0.14
9.974,-0.16
9.976,-0.215
9.978,-0.265
9.98,-0.295
9.982,-0.3
9.984,-0.275
9.986,-0.195
9.988,-0.12
9.99,-0.17
9.992,-0.15
9.994,-0.145
9.996,-0.185
9.998,-0.235
